1.6401275789153956e-08,3.0369624948916107e-09,1.9575265198540963e-09
8.414146611020633e-08,1.5697400528429892e-08,1.0514108652438268e-08
2.164362136286642e-07,4.082008036798062e-08,2.8816833124844612e-08
4.0216409387865504e-07,7.691398517123226e-08,5.7817928038961556e-08
6.303921984016907e-07,1.2280570684194266e-07,9.897792554039373e-08
8.865825285846028e-07,1.7754108681085957e-07,1.545642004932769e-07
1.1587381472321408e-06,2.402549539134381e-07,2.2764167515954933e-07
1.4479524785765285e-06,3.0999137086119675e-07,3.2144203202759343e-07
1.766310695732432e-06,3.851846521309339e-07,4.3784153511664397e-07
2.1302463386585017e-06,4.6322823553739916e-07,5.758869994534587e-07
2.5562780791804627e-06,5.427978065732328e-07,7.319018059104792e-07
3.062995185750679e-06,6.264266153999599e-07,9.013639435477655e-07
3.6686317545639555e-06,7.178773724643596e-07,1.0805853650757097e-06
4.38559561073571e-06,8.198222902005172e-07,1.2669991319541816e-06
5.217003949866737e-06,9.336891651054279e-07,1.458580177141767e-06
6.157521681342284e-06,1.0597339572305486e-06,1.653532108178911e-06
7.197114528526e-06,1.1974645177350561e-06,1.8501981154943601e-06
8.322069590649545e-06,1.3460034944443743e-06,2.0473148277666694e-06
9.513241528024543e-06,1.5043884960866126e-06,2.245486773693116e-06
1.074623932744874e-05,1.6717581713965175e-06,2.448353100344203e-06
1.1995854040859483e-05,1.847414110305486e-06,2.660741757335398e-06
1.324598695599211e-05,2.030754581115476e-06,2.886721922419708e-06
1.4500125475220104e-05,2.221249945806495e-06,3.129643425705746e-06
1.577431737340554e-05,2.4183969943898023e-06,3.392411022233135e-06
1.7084621244535403e-05,2.6216171210551065e-06,3.6774269975199467e-06
1.8445150934665435e-05,2.8298332155760416e-06,3.9858060963321175e-06
1.9868854136024387e-05,3.040601783875802e-06,4.3159704526981955e-06
2.136650274079836e-05,3.252385482785973e-06,4.662356897203219e-06
2.2941873585673573e-05,3.4681539905501583e-06,5.015994550026133e-06
2.459049500769115e-05,3.69280266066729e-06,5.370561535458629e-06
2.6304751352967637e-05,3.929187863214534e-06,5.726721897126758e-06
2.807749485040828e-05,4.177899044663157e-06,6.087013550648513e-06
2.990148628120567e-05,4.438047821830879e-06,6.45184488945875e-06
3.1768549712137495e-05,4.708010757275883e-06,6.820483688667898e-06
3.3669611794036614e-05,4.985667272045199e-06,7.1918578376840705e-06
3.559501453660655e-05,5.268630109735434e-06,7.5651876081533044e-06
3.7535370005720973e-05,5.55479719422479e-06,7.940253127205982e-06
3.9481688404162244e-05,5.842856241844424e-06,8.317384335587038e-06
4.1423734221998676e-05,6.132416443598623e-06,8.697742349614055e-06
4.3355205662323164e-05,6.4237566061603126e-06,9.083696182719657e-06
4.5282757899341496e-05,6.717429704366572e-06,9.478516510986931e-06
4.72201127479947e-05,7.013719437506351e-06,9.884999863272973e-06
4.91789570113025e-05,7.31177726337409e-06,1.0303725989731142e-05
5.117047994210865e-05,7.609895740021686e-06,1.0732462159945218e-05
5.32087496173924e-05,7.908249038412182e-06,1.1167513402770594e-05
5.530985225166312e-05,8.20970142372661e-06,1.1605716568255158e-05
5.74869405698412e-05,8.517115133653662e-06,1.2045197923873538e-05
5.974540608356744e-05,8.831665568677792e-06,1.2484864742195308e-05
6.208209656789492e-05,9.152987553586682e-06,1.2923901989231444e-05
6.448892496512525e-05,9.479904621050377e-06,1.3361694736047006e-05
6.695572644347547e-05,9.811179343493557e-06,1.3797543694345837e-05
6.946859442454299e-05,1.014585965435664e-05,1.4230946073113125e-05
7.200805322472632e-05,1.048327405772619e-05,1.4663426084579322e-05
7.455271394902608e-05,1.0822882473748294e-05,1.5098700211841788e-05
7.708575907722114e-05,1.116423586483804e-05,1.5540509781263752e-05
7.960167110877014e-05,1.1507113636731218e-05,1.5991780781776476e-05
8.210705788740877e-05,1.1851571519761843e-05,1.6455119899218298e-05
8.461244955470833e-05,1.2197761186921388e-05,1.693311247720677e-05
8.712582429185982e-05,1.2545667375121653e-05,1.742781035447472e-05
8.965356365035155e-05,1.289429439018491e-05,1.7939155989240438e-05
9.220435803052461e-05,1.3242457615596353e-05,1.846319508397051e-05
9.478669176869255e-05,1.3591742064030023e-05,1.8992133268717026e-05
9.740286324891955e-05,1.3946099170907018e-05,1.9520241091899197e-05
0.0001000482357247025,1.430839543828167e-05,2.004838292609549e-05
0.00010271332109480914,1.4678936186769299e-05,2.0578855559847098e-05
0.0001053873071638537,1.505625005462416e-05,2.1111399093162772e-05
0.00010806314667475004,1.543844080098323e-05,2.1644702568314037e-05
0.00011073895727590563,1.5823892633230367e-05,2.217748583115242e-05
0.00011341407226506,1.6211160979608175e-05,2.2708654519896052e-05
0.00011608541933663667,1.6598779635842653e-05,2.3237219919965903e-05
0.00011874676525858795,1.6985344965408016e-05,2.3762410470910246e-05
0.00012138974639766604,1.736980129506769e-05,2.428428601385502e-05
0.00012400847696624007,1.7751847964944924e-05,2.4804552013647227e-05
0.00012660389815109663,1.8132096972520852e-05,2.532651828228418e-05
0.0001291811336581803,1.8511532405442283e-05,2.5853710204131264e-05
0.0001317462084053007,1.8890427611695975e-05,2.6387868393069408e-05
0.00013430793967327727,1.92678251699764e-05,2.692768687203074e-05
0.00013688042348834585,1.9643553862115362e-05,2.746964957962148e-05
0.00013947950844749604,2.001971301450302e-05,2.801061737858777e-05
0.0001421157004321711,2.039846595215923e-05,2.8549388926466672e-05
0.0001447917736959348,2.078045781319178e-05,2.9085945510311e-05
0.0001475045924202039,2.116520513772326e-05,2.9620341558283055e-05
0.0001502485250193223,2.1551670419878288e-05,3.015265493159153e-05
0.00015301797645653087,2.1938767460836383e-05,3.068316406672532e-05
0.0001558052132371317,2.2325556028750268e-05,3.121146977320956e-05
0.00015859820764879722,2.2711586182387017e-05,3.173659009291506e-05
0.00016138294211214045,2.3097045347914293e-05,3.2259225488370574e-05
0.00016414869303478852,2.3482211931210225e-05,3.278189723097162e-05
0.00016689491366894942,2.386714331792795e-05,3.33070102006297e-05
0.00016963047738408556,2.4251938314456792e-05,3.383662843041475e-05
0.00017236432099248885,2.4636917858637073e-05,3.437312848709174e-05
0.0001751001967394342,2.502248632444344e-05,3.4918874927402094e-05
0.00017783949234163472,2.5408410973701432e-05,3.5474782409227873e-05
0.00018058668175255789,2.579320596790114e-05,3.603850099691913e-05
0.00018334851519467504,2.617639273469504e-05,3.6604035412604554e-05
0.0001861274729362094,2.656051498759699e-05,3.716731022866569e-05
0.00018891899809326442,2.6948412945904844e-05,3.773057257863376e-05
0.0001917136007320908,2.734073706862141e-05,3.8296812657870204e-05
0.00019450077259851529,2.7736488723872637e-05,3.8865662696979e-05
0.0001972740128383487,2.8134279964645368e-05,3.94351788262304e-05
0.0002000329617026596,2.8533054946643714e-05,4.000318519971934e-05
0.00020277976791077966,2.8931852192384966e-05,4.056765123814112e-05
0.00020551470757646596,2.9329469265934484e-05,4.112696579995409e-05
0.00020823511588408849,2.9724566584139603e-05,4.168062523414849e-05
0.00021093647711429913,3.0116125376244208e-05,4.2228932190913636e-05
0.00021361509505424164,3.05040659403887e-05,4.277222093605572e-05
0.0002162695343068772,3.0889370789004876e-05,4.331209195325511e-05
0.00021889848065667625,3.127342155090491e-05,4.3851886146151816e-05
0.0002214994906866865,3.1657099670931385e-05,4.43942709767624e-05
0.00022407180507481736,3.203987456792162e-05,4.493901792226338e-05
0.00022662057548150858,3.24203219164293e-05,4.548330738906486e-05
0.00022915785524045524,3.279835012567071e-05,4.602410634813324e-05
0.00023169941945304262,3.317556643795052e-05,4.6559810637369547e-05
0.00023425846157492237,3.355331408288295e-05,4.7090047778548714e-05
0.00023683821710752476,3.393133262848847e-05,4.761531823007645e-05
0.00023943200724071704,3.430802386552874e-05,4.8136880128733316e-05
0.0002420308355236964,3.468158930851859e-05,4.865625657438591e-05
0.0002446275474524415,3.505092060620077e-05,4.917413679090087e-05
0.00024721536874181617,3.541581035486991e-05,4.9689225892658736e-05
0.0002497858933218556,3.577667769258847e-05,5.019988230534538e-05
0.00025233248632559337,3.613407434736907e-05,5.070676667168712e-05
0.0002548567581873701,3.6488414036462084e-05,5.121188197989254e-05
0.0002573662464758902,3.684009977706665e-05,5.171710217018466e-05
0.00025986655555207026,3.718979045822666e-05,5.222454312054782e-05
0.0002623583932951197,3.753848782046273e-05,5.2736669434879835e-05
0.00026484004339365875,3.788696382100026e-05,5.325523607796403e-05
0.0002673128535527863,3.823447479769773e-05,5.3779368452552154e-05
0.0002697823420386002,3.857985934072922e-05,5.4304412910003566e-05
0.00027225144737928205,3.892432765060409e-05,5.482676035250305e-05
0.00027471571585661934,3.927045089601891e-05,5.5348823262370404e-05
0.00027716526773828245,3.9619424689184517e-05,5.587424971065417e-05
0.0002795903424819938,3.997051614457578e-05,5.640323683385522e-05
0.00028198563578231563,4.0321946546012004e-05,5.693373588615937e-05
0.00028435095334987967,4.0671833319372685e-05,5.746307847618506e-05
0.0002866897960527575,4.101853207655166e-05,5.7988651821575354e-05
0.0002890055019373806,4.1361200101813726e-05,5.850873607663558e-05
0.0002912998154310496,4.170003277647064e-05,5.902351369885218e-05
0.00029357477547091654,4.203525651781446e-05,5.9534235492417406e-05
0.00029583172329590015,4.236659070958768e-05,6.004119066080351e-05
0.00029806778412039297,4.2693893898709305e-05,6.05434244605473e-05
0.00030027746197760103,4.3017696548728335e-05,6.104097732971303e-05
0.00030245851251773845,4.3339086993870684e-05,6.153577629733829e-05
0.00030461267712619236,4.365885225057848e-05,6.202905879753607e-05
0.00030674076551791735,4.3976286199640376e-05,6.251961130679002e-05
0.00030884408968136575,4.429052809782149e-05,6.300524237587375e-05
0.00031093266987922385,4.460259317105735e-05,6.348478056413976e-05
0.00031302082849720125,4.4913756651566566e-05,6.395807052048634e-05
0.00031511476686941836,4.522366890436653e-05,6.442552808046181e-05
0.00031721027165758044,4.553095908116504e-05,6.48885199353431e-05
0.00031929963808185113,4.583501857188909e-05,6.534902021586345e-05
0.00032137757225701664,4.613659609783711e-05,6.580855638324254e-05
0.0003234405890856023,4.6436393449402826e-05,6.626707055862185e-05
0.0003254836320779094,4.6734329940964114e-05,6.672256201601817e-05
0.00032750245985910156,4.702999249611677e-05,6.71730091931428e-05
0.0003294996767457654,4.732285213720222e-05,6.761839726517257e-05
0.0003314818177997664,4.761231952666234e-05,6.806017362493574e-05
0.00033345228816862024,4.7898571614109366e-05,6.85003543523508e-05
0.00033540947352126885,4.818319491135226e-05,6.894147268706018e-05
0.00033734864423355995,4.846816690966054e-05,6.938580999997988e-05
0.0003392679136063116,4.8754046120684164e-05,6.983361453361022e-05
0.0003411716865858607,4.9039119959830503e-05,7.028154806882303e-05
0.00034306369757986085,4.932202667949404e-05,7.07267835140613e-05
0.0003449401899879299,4.960424604670089e-05,7.117217961718816e-05
0.00034679414059325203,4.988758154456342e-05,7.162211120153393e-05
0.000348623146745479,5.017186891948814e-05,7.207727677952928e-05
0.00035043023726579164,5.045569642996811e-05,7.253541893105812e-05
0.00035221993036470126,5.07372365376354e-05,7.29930177890283e-05
0.00035399535976545534,5.101543462051524e-05,7.344676693932817e-05
0.0003557549026630965,5.129074757173147e-05,7.38956062840736e-05
0.0003574932171407115,5.156381971119024e-05,7.434085356031917e-05
0.00035920911536432517,5.183465137639446e-05,7.478414122902242e-05
0.00036090640586726886,5.2102962945654594e-05,7.522606977338812e-05
0.0003625858908134688,5.236825510769316e-05,7.566576808310012e-05
0.00036424376767159853,5.2630086236762186e-05,7.610138597522691e-05
0.00036587844935499775,5.288890407578568e-05,7.653220007818533e-05
0.00036749426220578416,5.3145935389361264e-05,7.695901374320024e-05
0.0003690962437862525,5.3401588595804785e-05,7.738152299827545e-05
0.0003706822175119539,5.365482952587527e-05,7.779867723407428e-05
0.0003722486030817292,5.390487229068545e-05,7.82108415325046e-05
0.00037380149865572467,5.415218646029289e-05,7.861845258849001e-05
0.00037534848097604487,5.439694126261729e-05,7.902090670685676e-05
0.0003768876547895762,5.4638584151895584e-05,7.941819585870991e-05
0.0003784120991228135,5.487728630674697e-05,7.981204427518915e-05
0.00037991746487553023,5.511395629605309e-05,8.020472078908218e-05
0.0003814028599600749,5.5349113574239255e-05,8.059722822551337e-05
0.0003828665211566031,5.558249861475851e-05,8.098848455416199e-05
0.0003843072169312675,5.58135511648263e-05,8.13761721928775e-05
0.0003857295154377039,5.604192152638733e-05,8.175851815612837e-05
0.0003871387381457964,5.626732778574347e-05,8.213539529370006e-05
0.00038853484599013044,5.648943323197281e-05,8.250845471892006e-05
0.0003899147855768341,5.6708698890592514e-05,8.288034017506533e-05
0.00039127488341903237,5.692678546371192e-05,8.325353162754443e-05
0.00039261206932817805,5.7145130906614524e-05,8.362916800083505e-05
0.00039392495787625475,5.7363345186763016e-05,8.400576015659035e-05
0.00039521508567666816,5.757996293452454e-05,8.438065202208593e-05
0.00039648729078914694,5.779507356878246e-05,8.475455684767541e-05
0.0003977462827069215,5.801045588174415e-05,8.513138801407139e-05
0.00039899520284594487,5.822693445546212e-05,8.551325052787475e-05
0.0004002375692750266,5.844335614639362e-05,8.589868180328918e-05
0.00040147799065267693,5.8657729218242686e-05,8.628411144866108e-05
0.0004027198857997017,5.886904177605277e-05,8.666607214653609e-05
0.0004039611478671516,5.907796049229644e-05,8.704368837259485e-05
0.00040519300514275155,5.928556513581815e-05,8.741864205430097e-05
0.000406406643453087,5.9492356466488345e-05,8.779297773740539e-05
0.000407600460249319,5.9698117939722384e-05,8.816787059717543e-05
0.0004087764482992381,5.9901922668558264e-05,8.854323039919405e-05
0.00040993408296662146,6.010287877341695e-05,8.891739926807298e-05
0.0004110734052413236,6.030140594428082e-05,8.928785153387014e-05
0.00041219978111181117,6.049902023599069e-05,8.965311954534044e-05
0.000413320683174792,6.069637794968436e-05,9.001288934177085e-05
0.00041443762585560235,6.0892182293992326e-05,9.036730764917096e-05
0.0004155431007718777,6.108513057673675e-05,9.071758123854997e-05
0.00041663139518751703,6.127570432512154e-05,9.106450431832273e-05
0.0004177053825341736,6.146430311211075e-05,9.140709051477023e-05
0.0004187646817839033,6.165023945565324e-05,9.174471664775411e-05
0.0004198032254251844,6.183340241831432e-05,9.207903497944603e-05
0.00042081777897992004,6.201482411926385e-05,9.241266854034186e-05
0.0004218084982281347,6.219571777051221e-05,9.274732397556668e-05
0.0004227787255044118,6.237668531635083e-05,9.308285399329463e-05
0.00042373475588583086,6.25574122191168e-05,9.341740224144798e-05
0.00042468020588644123,6.27365639622346e-05,9.3748643420339e-05
0.00042561326491033583,6.291285816796141e-05,9.407480771256561e-05
0.0004265316670430244,6.308636126990589e-05,9.439553552456045e-05
0.00042743611426746133,6.32580330983026e-05,9.471209449409602e-05
0.00042832741882479954,6.342910982064323e-05,9.502646221914739e-05
0.00042920348415904084,6.360080571945718e-05,9.534009118657433e-05
0.00043006035867326927,6.377325786830035e-05,9.565253821073063e-05
0.0004308970140969463,6.394476647533171e-05,9.596242396858068e-05
0.00043171749252416227,6.411401316411736e-05,9.627142393186165e-05
0.0004325267879134748,6.428222278674785e-05,9.658424016418881e-05
0.00043332859870682427,6.445077113144773e-05,9.690387477448831e-05
0.0004341268369282042,6.461910101641129e-05,9.72294494768424e-05
0.0004349263638983895,6.478558701649556e-05,9.755739562680721e-05
0.0004357311073478523,6.494950333085015e-05,9.788318061255652e-05
0.00043653972527811453,6.511188473914648e-05,9.820426140476868e-05
0.00043734370225828823,6.527392537879545e-05,9.852181697213233e-05
0.00043813331667771487,6.543597460396978e-05,9.883836416483757e-05
0.0004389062872126039,6.559789428438452e-05,9.915576112205791e-05
0.0004396659150987647,6.575926688268553e-05,9.947477155206188e-05
0.000440413365442183,6.591928125507026e-05,9.979437575141006e-05
0.0004411491625067021,6.607697971622982e-05,0.0001001117092864088
0.000441879059390861,6.6232442576303e-05,0.0001004242147770073
0.0004426125061936382,6.638669781307924e-05,0.00010073114309316744
0.00044335461390347577,6.65397846259578e-05,0.00010103274960308044
0.00044410056709437337,6.669041628204682e-05,0.00010133024716259992
0.000444838723344963,6.683747283275258e-05,0.00010162448262088416
0.0004455593609381748,6.69807083338787e-05,0.0001019145992564014
0.0004462598446849558,6.712048150129734e-05,0.00010219941944665265
0.0004469412212472392,6.725757904841337e-05,0.00010247921609424865
0.0004476028387018249,6.73932793661771e-05,0.00010275613862552708
0.0004482441398238698,6.752908820331253e-05,0.00010303292726337588
0.00044886947983040047,6.766606138625761e-05,0.00010331091084841611
0.0004494856107325217,6.780430173514371e-05,0.0001035891475311251
0.00045009512069114877,6.794291612802969e-05,0.00010386538109168644
0.0004506952288047622,6.808047683483576e-05,0.00010413738360401597
0.00045128254435194943,6.82156415976229e-05,0.00010440383923799471
0.0004518564763401675,6.834776487898488e-05,0.00010466494957397735
0.0004524169352203931,6.84774824025147e-05,0.00010492228434579536
0.00045296090292059997,6.860629113836217e-05,0.00010517768753545119
0.0004534859714842014,6.873512322668928e-05,0.00010543171173589868
0.000453995586885174,6.88632756595237e-05,0.00010568319210802476
0.0004544958666575516,6.8989488743094e-05,0.00010593266125675107
0.0004549917168791721,6.91140020126691e-05,0.00010618456254311083
0.0004554874246958144,6.923781925844871e-05,0.00010644303542480945
0.0004559876135656135,6.936062547907309e-05,0.0001067082329162807
0.00045649758715782994,6.948140194199874e-05,0.0001069769483190612
0.0004570217756256116,6.960055052043777e-05,0.00010724451446528127
0.0004575592902563671,6.971974702554705e-05,0.00010750784630989978
0.00045810152802916476,6.984025662696733e-05,0.00010776745939673685
0.0004586355344159542,6.9962320529879e-05,0.00010802576574265163
0.00045915343201561546,7.008518533812952e-05,0.00010828501126601885
0.0004596578842381917,7.020716947040968e-05,0.00010854644732000471
0.0004601546616581041,7.032689150318425e-05,0.0001088095483802268
0.00046064650763694365,7.044476389363784e-05,0.00010907196112194853
0.0004611340962280046,7.056231267610475e-05,0.00010933072628132089
0.000461618649971303,7.068057125561381e-05,0.00010958423455055564
0.00046210358276873513,7.079937267534657e-05,0.00010983312200886051
0.0004625910384848716,7.091748644998026e-05,0.00011007903504703198
0.00046307756104405203,7.103347110145423e-05,0.00011032268895350624
0.0004635548895113732,7.114645232982597e-05,0.00011056332048220991
0.0004640155381227964,7.12563473358314e-05,0.00011079942816055247
0.0004644566877805333,7.136388655833917e-05,0.00011103029144919628
0.00046487823557958536,7.14704801387834e-05,0.00011125740173567718
0.00046528184033285555,7.15777048909375e-05,0.00011148369637821684
0.00046567207486254155,7.168668833751264e-05,0.00011171129795401141
0.00046605443563605943,7.179790093306737e-05,0.00011194013556411147
0.000466431382295342,7.191118417021449e-05,0.00011216834830981296
0.0004668006981219451,7.202565142341246e-05,0.00011239367658432087
0.0004671588725295486,7.213968756351787e-05,0.00011261431641431034
0.0004675047549258338,7.225165380549868e-05,0.00011282948288848503
0.000467837988596536,7.236126865399558e-05,0.00011304002510003348
0.0004681559451909953,7.246989578827265e-05,0.000113247847469381
0.0004684575063542119,7.257910456900443e-05,0.00011345421598736486
0.0004687473383777017,7.268910915179101e-05,0.00011365806681326457
0.0004690314327064864,7.279832638001094e-05,0.0001138589271237847
0.0004693139816841177,7.290562369531165e-05,0.0001140611306398155
0.00046959913785276557,7.301187624940119e-05,0.00011426995589327348
0.0004698915864555701,7.311744104157773e-05,0.00011448662903077464
0.00047019564541846273,7.322113349750605e-05,0.00011470862766425709
0.00047051349439393127,7.332253616539634e-05,0.0001149315915656796
0.00047084408638531876,7.34229218451554e-05,0.00011515172509096584
0.0004711848398348315,7.352392541526035e-05,0.00011536847989144223
0.00047153184279541865,7.362652900372203e-05,0.00011558447563269288
0.00047187567430849664,7.373084562825248e-05,0.00011580252252137506
0.0004722074945560499,7.383611097596296e-05,0.00011602385288514098
0.00047252953000809006,7.394090281738146e-05,0.00011624795587557245
0.0004728479588970907,7.404358767957858e-05,0.00011647280281160783
0.00047316420027276813,7.41434727187094e-05,0.00011669571087671677
0.0004734785454860418,7.424119897363098e-05,0.00011691470484935237
0.00047379455548917585,7.433726072175227e-05,0.00011712951643324752
0.0004741165057053728,7.443102722792763e-05,0.00011734123821921577
0.00047444347660041794,7.45217527263335e-05,0.00011755084366527577
0.00047476807970546963,7.460949623288087e-05,0.00011775809153434497
0.0004750804297519298,7.46943008210188e-05,0.00011796168324393084
0.00047537367353450206,7.477628733953729e-05,0.00011816044045941645
0.00047564712827923727,7.485679764909086e-05,0.00011835499151440572
0.00047590464041526143,7.4937786614827e-05,0.00011854801400540059
0.00047615110895484635,7.502070183697784e-05,0.00011874215383216171
0.0004763910332616529,7.510608941859594e-05,0.0001189379944202722
0.00047662707738305073,7.519345439535302e-05,0.0001191339624780996
0.0004768577555057189,7.528145869750228e-05,0.00011932774870177652
0.0004770796402765034,7.536854865174299e-05,0.0001195175797911917
0.0004772915341635343,7.545349400572684e-05,0.0001197022741376037
0.0004774931295623256,7.553565119140038e-05,0.00011988157332006754
0.0004776814939793726,7.561543810121173e-05,0.00012005685221540524
0.0004778532944095707,7.569412788820134e-05,0.00012022989023560621
0.000478008876644249,7.577229082455695e-05,0.00012040047842231598
0.00047815240634656943,7.584898200749962e-05,0.00012056803895626573
0.00047829316225615596,7.592350800787857e-05,0.00012073556469264108
0.00047844400725743436,7.599670221137952e-05,0.00012090771280737785
0.000478613563979209,7.606932880552196e-05,0.0001210865416461943
0.00047880299961588303,7.61408186527154e-05,0.00012127084306123845
0.000479009678304297,7.621019783102725e-05,0.00012145724610053242
0.000479230757873401,7.627778972201786e-05,0.0001216416797079481
0.0004794645575615929,7.634551790009534e-05,0.00012182240245084336
0.00047970853233761786,7.641551047170537e-05,0.00012200161396629495
0.0004799543161731755,7.648880578413434e-05,0.00012218249225146895
0.0004801915889375036,7.656497898750435e-05,0.00012236672621664658
0.00048041906532097454,7.664246266750617e-05,0.00012255433705130072
0.00048064214802785894,7.671906948580546e-05,0.00012274375238507015
0.00048086322694535026,7.679334770596777e-05,0.00012293236580628936
0.0004810823248586866,7.686570824719223e-05,0.00012311765599828015
0.00048130285716317314,7.693707095897697e-05,0.0001232984796210341
0.0004815307614813511,7.700714929345702e-05,0.00012347551159548454
0.00048176749499607524,7.707486294129572e-05,0.0001236500897858133
0.0004820066244320923,7.713968665211625e-05,0.0001238225196958387
0.00048223724842467834,7.72017273117548e-05,0.00012399167969722428
0.0004824507761163648,7.726094323454814e-05,0.00012415616516528764
0.0004826456329914294,7.731767572846761e-05,0.0001243162032524889
0.00048282558966815224,7.737338307084615e-05,0.00012447440402030328
0.0004829950362413419,7.74297192143188e-05,0.0001246339560453833
0.0004831578703790101,7.748761957414237e-05,0.00012479618079554072
0.0004833189191030902,7.754738248055415e-05,0.00012495988565438252
0.0004834813341105905,7.76088442302247e-05,0.00012512285146682803
0.0004836435143451441,7.767133229018161e-05,0.00012528316061053172
0.000483799044343078,7.773352945748614e-05,0.0001254391129905782
0.0004839404431559011,7.779391620714794e-05,0.00012559015177620217
0.00048406483087911224,7.785211873860586e-05,0.00012573776307772585
0.00048417281424839934,7.790914502962164e-05,0.0001258836633668889
0.0004842648820731217,7.79655187959766e-05,0.00012602771552672909
0.00048434329438355614,7.80202851119438e-05,0.00012616888772131027
0.00048441638711075956,7.80726817503495e-05,0.000126308730709536
0.00048449718731856763,7.812334709761756e-05,0.00012645161082612536
0.00048459556211372063,7.817296353536536e-05,0.0001266008336315229
0.0004847140325347727,7.82211390233935e-05,0.00012675645127375464
0.0004848507228897553,7.826706591248027e-05,0.0001269157751153434
0.0004850032412879034,7.831090031950574e-05,0.00012707454227413504
0.0004851700966118647,7.83542244860591e-05,0.00012722984171183215
0.0004853491259328984,7.839906355121902e-05,0.00012738273381182003
0.0004855330738252428,7.844678298672696e-05,0.0001275361977331733
0.00048571088017985065,7.849759672661446e-05,0.0001276922853756151
0.0004858784822942439,7.855071947537711e-05,0.00012785159182011023
0.000486040830708802,7.86047890692744e-05,0.00012801313282511778
0.0004862014038224441,7.865817716065932e-05,0.0001281745213604434
0.00048635983838682205,7.870953092001162e-05,0.00012833296303913687
0.0004865191210563759,7.875862058795954e-05,0.00012848669982289606
0.00048668676809385014,7.880586376931682e-05,0.00012863594022497255
0.0004868667882446056,7.885086801893117e-05,0.0001287822234165073
0.00048705422243344065,7.889293170416628e-05,0.00012892653667342463
0.0004872386690835719,7.893203479427084e-05,0.0001290682141080668
0.0004874118094054951,7.896838042635083e-05,0.00012920562127454369
0.00048757091231221763,7.900255363338382e-05,0.0001293381860495053
0.00048771485269983504,7.903589044832233e-05,0.00012946756242558877
0.0004878410133139031,7.90698026060831e-05,0.00012959632321247176
0.0004879501984950531,7.910533032960972e-05,0.00012972617538376563
0.00048805023534863307,7.914308789950233e-05,0.00012985712702707943
0.00048815008929044317,7.918304482955919e-05,0.00012998780345121488
0.0004882524581483875,7.922438115687089e-05,0.00013011639864444422
0.0004883520319164314,7.926548114808166e-05,0.0001302409905890478
0.0004884398416818337,7.930477300596069e-05,0.0001303605971711505
0.000488510254812119,7.934206156039337e-05,0.00013047633257393722
0.0004885625341704851,7.937819614289049e-05,0.00013058998877357438
0.0004885973901679543,7.941350336736968e-05,0.00013070204836416544
0.0004886167793630619,7.94472477420674e-05,0.0001308113600716794
0.0004886275456062177,7.947915122653024e-05,0.0001309180887237356
0.0004886417946645814,7.95104840656895e-05,0.00013102615771363988
0.0004886704286106035,7.954247998720086e-05,0.00013113995074739052
0.0004887174849831871,7.957491924702836e-05,0.00013126074880888308
0.0004887820009279562,7.960627289511925e-05,0.00013138659682604496
0.0004888622359159171,7.963550135329275e-05,0.00013151347737276877
0.0004889573751585885,7.966384481893926e-05,0.00013163780923297982
0.0004890664581588,7.969358132187331e-05,0.0001317592989945928
0.0004891837689382424,7.97262162437599e-05,0.00013188048439999206
0.0004892974934953656,7.976208378237288e-05,0.00013200389314470232
0.0004894009258736183,7.98004585275227e-05,0.00013213073253511527
0.000489498798189376,7.983982264681686e-05,0.00013226053118820918
0.0004895967565284007,7.98780956862041e-05,0.00013239096709480983
0.0004896968648389679,7.991418653503723e-05,0.00013251882995241979
0.0004898023491896349,7.994917778827935e-05,0.00013264182149588273
0.0004899159148061205,7.998411837800335e-05,0.0001327600681033597
0.0004900348625945509,8.001825016029935e-05,0.00013287568334617982
0.0004901526623392845,8.005014795283162e-05,0.00013299032849271836
0.0004902635879625497,8.007907856148173e-05,0.00013310360209486092
0.0004903644645299412,8.010528604324163e-05,0.00013321352650995648
0.0004904542224761657,8.012958603191461e-05,0.00013331871226107027
0.0004905309675038266,8.015281776102556e-05,0.000133420144026607
0.0004905911255923642,8.017574501278848e-05,0.00013352024135613534
0.0004906341947385601,8.019936406770079e-05,0.00013362112360608286
0.0004906662999696207,8.02247417671623e-05,0.00013372358304870337
0.0004906965359741313,8.025226870792409e-05,0.0001338268187497813
0.0004907294607286528,8.028116410627893e-05,0.00013392913347566143
0.0004907614490856767,8.030967146763969e-05,0.00013402852619822444
0.0004907838148725173,8.033624857621487e-05,0.00013412342034200859
0.0004907895043124228,8.036092353847899e-05,0.00013421381370929281
0.0004907761863011037,8.038496891486615e-05,0.0001343010705624738
0.0004907442418577441,8.040948383990092e-05,0.00013438629361393068
0.0004906955049073204,8.043427656203245e-05,0.00013446878534300707
0.0004906353915906608,8.045791509134224e-05,0.0001345479940226429
0.0004905747517939295,8.047966491914837e-05,0.00013462714402142533
0.000490524866584859,8.050055410212104e-05,0.00013471128360812348
0.0004904906336949746,8.052162156574128e-05,0.00013480296324284248
0.0004904716579787577,8.054231695381439e-05,0.00013490105711799896
0.0004904665422371951,8.056154552842033e-05,0.00013500188408650622
0.0004904737290371999,8.057976267677925e-05,0.00013510104109258348
0.000490490243169968,8.059862394938198e-05,0.00013519636936132624
0.0004905108414839641,8.061926989287699e-05,0.00013528962700640063
0.0004905287738327464,8.064212732592809e-05,0.00013538398761145162
0.0004905363915251273,8.066708586403121e-05,0.00013548168361434188
0.000490530379724577,8.069303252645571e-05,0.0001355831869205704
0.0004905167836073639,8.07180376218845e-05,0.0001356867490009535
0.0004905042112935782,8.074129947547878e-05,0.0001357891770197965
0.0004904981776627137,8.076403845467631e-05,0.0001358876344189793
0.000490500938074416,8.078721589756126e-05,0.00013598147788082435
0.0004905102337916139,8.080995982979405e-05,0.0001360722744839327
0.0004905207117233611,8.083064963824964e-05,0.0001361616693443895
0.0004905268943819746,8.084829013174614e-05,0.0001362495507371195
0.0004905245941332041,8.086292659837145e-05,0.0001363342017865932
0.0004905112389871574,8.087556518097205e-05,0.00013641418197125383
0.0004904845118395658,8.088780003779276e-05,0.00013649002288786084
0.0004904417769168147,8.09012361811957e-05,0.00013656378908995326
0.0004903824111935548,8.09170560938208e-05,0.00013663770651577766
0.0004903106551327588,8.093575667668313e-05,0.00013671295651352988
0.000490235104053199,8.095715270711946e-05,0.00013678893945345065
0.0004901620158520947,8.098061732711641e-05,0.00013686388102932044
0.0004900896247830104,8.100505011931229e-05,0.00013693581264627704
0.0004900099506444318,8.102864112081369e-05,0.0001370032553414142
0.0004899158063851855,8.105007333922383e-05,0.00013706615943686904
0.0004898053167539953,8.106991251583719e-05,0.00013712597933858602
0.0004896785761952005,8.108959998124288e-05,0.00013718443778460714
0.0004895345677352657,8.110967784980863e-05,0.00013724186238164214
0.0004893742747038816,8.11290325092049e-05,0.00013729727321343133
0.0004892040258936647,8.114678885962215e-05,0.0001373519508055114
0.00048903429310524,8.116412890270283e-05,0.00013741038165274275
0.0004888765200884886,8.11820107833901e-05,0.00013747570204625725
0.0004887400244309353,8.119939769700756e-05,0.0001375471565520819
0.0004886276355790125,8.121482191031842e-05,0.00013762169241218468
0.0004885346783343063,8.12281543620519e-05,0.00013769554436927998
0.0004884532808676726,8.124058544928298e-05,0.00013776605076227315
0.0004883763513327858,8.125363702904012e-05,0.00013783377121372425
0.0004882984036133994,8.12685848849521e-05,0.00013790157824789825
0.00048821338909500815,8.128608563396988e-05,0.0001379720591914178
0.0004881171090546569,8.130575275238779e-05,0.00013804603610503233
0.0004880130971750801,8.132607221124305e-05,0.0001381221384317142
0.00048790896489561724,8.134516110620685e-05,0.00013819746479472095
0.0004878099671198793,8.136227261083279e-05,0.00013826911709848504
0.0004877182567417287,8.137784783488322e-05,0.00013833587244257213
0.00048763281635739363,8.139179024234389e-05,0.00013839873014590082
0.00048754988272548905,8.140321363150118e-05,0.0001384594755097993
0.00048746461855577535,8.141154034844174e-05,0.00013851864095140877
0.0004873721052440696,8.141679719299676e-05,0.00013857505288512683
0.00048726827526801846,8.141942956806302e-05,0.00013862716045575003
0.00048715008792803453,8.142019000005046e-05,0.00013867476291343878
0.00048701605011731286,8.142004484486142e-05,0.000138719518244943
0.00048686618134500154,8.14201297284113e-05,0.00013876401880603717
0.0004867029006022607,8.142152897822116e-05,0.0001388102326456522
0.00048653393399596736,8.142473720561316e-05,0.00013885810073177628
0.000486367559105741,8.142940667648339e-05,0.00013890575926102874
0.0004862059927386284,8.143465448173138e-05,0.00013895098435759266
0.0004860454268081654,8.143941297369619e-05,0.00013899197326314462
0.00048587933159416856,8.144246339062762e-05,0.00013902819181620132
0.0004857024008759061,8.144330516067108e-05,0.00013906128383517623
0.0004855136673909809,8.144309150764825e-05,0.00013909384807971788
0.00048531449416807244,8.144309892846407e-05,0.00013912689436086396
0.00048510369671815097,8.144279730318915e-05,0.00013915869832223702
0.00048488097089459566,8.144113441278768e-05,0.00013918857405140255
0.00048465269023855524,8.143876270317441e-05,0.0001392203534283616
0.0004844305559967305,8.143687496292283e-05,0.00013925824161099557
0.00048422584524447003,8.14351818359239e-05,0.0001393028362163181
0.0004840433231910058,8.143221253409662e-05,0.00013935192866395857
0.0004838797878970015,8.14270025662923e-05,0.00013940201736738163
0.00048372810977176487,8.142023377576898e-05,0.00013944972656542898
0.00048358166212196524,8.141350238902085e-05,0.0001394940957808706
0.0004834356325460086,8.140824801751883e-05,0.00013953733660114424
0.00048328487894880345,8.140529376963699e-05,0.00013958235569238423
0.00048312483683726,8.14044893398344e-05,0.0001396305433253754
0.00048295746068963445,8.140457547621372e-05,0.0001396811151798445
0.0004827898655665559,8.140369644977707e-05,0.0001397313719059197
0.00048262714082957615,8.14010342766101e-05,0.00013977832022401233
0.00048247087269246856,8.139738399218014e-05,0.00013982026166434777
0.00048232036178532154,8.13931812529771e-05,0.0001398572743024522
0.00048217308404357637,8.138745332757013e-05,0.00013989088470957135
0.0004820253534628944,8.137924166282732e-05,0.0001399223376802596
0.0004818720405161362,8.136858373749192e-05,0.000139951116256753
0.0004817078170167803,8.135557602818859e-05,0.00013997586891400404
0.0004815302052289582,8.134020244824471e-05,0.00013999643441628688
0.0004813392596369195,8.13234685548357e-05,0.00014001451474132418
0.00048113443290352307,8.13071554114058e-05,0.00014003256475910553
0.00048091415454646925,8.129253425528859e-05,0.0001400521170797782
0.00048067904480047173,8.127977521827291e-05,0.00014007270687599652
0.0004804343567032844,8.126835162671578e-05,0.00014009257095353375
0.00048018740201942857,8.125747450840515e-05,0.00014011006739699268
0.000479942039103691,8.12459578533392e-05,0.00014012382140152218
0.00047969615380462235,8.123272897486699e-05,0.0001401332176097118
0.00047944304590294044,8.121812246784044e-05,0.00014013963787567855
0.0004791779865492058,8.120383240017719e-05,0.00014014559832710552
0.0004789014110151401,8.119123618393938e-05,0.00014015247406750248
0.00047861258007655944,8.117999435354562e-05,0.00014015891080816707
0.00047830989437871806,8.116833804714393e-05,0.00014016336834945858
0.0004779977923714836,8.115528461273478e-05,0.00014016843365944833
0.00047768728136097176,8.114144076952548e-05,0.0001401785548552959
0.00047739040121071467,8.112695758011013e-05,0.00014019542931152342
0.0004771135155957607,8.111080750418894e-05,0.00014021757631892852
0.00047685488964414457,8.109233517106098e-05,0.00014024182533573347
0.00047660821728151857,8.107216789530828e-05,0.00014026441273506373
0.00047636735658748225,8.105158812254316e-05,0.00014028338052111435
0.0004761282424827762,8.103192965047393e-05,0.00014030053038471073
0.00047588714881953437,8.10143114745421e-05,0.00014031907084017907
0.00047563935996149093,8.099897097096911e-05,0.00014034083260292522
0.00047538483013877687,8.098481538530751e-05,0.00014036546141108844
0.0004751302446730388,8.096987163451615e-05,0.0001403905897558712
0.00047488117010167664,8.095300583207416e-05,0.0001404131956940429
0.00047463989975498044,8.093483179706427e-05,0.0001404314820061826
0.00047440872872789243,8.091593133974908e-05,0.00014044528149906665
0.0004741873101435805,8.089572124339273e-05,0.00014045549552814995
0.0004739677369601096,8.087397437165578e-05,0.00014046374461033727
0.00047374057660995645,8.085160385517793e-05,0.00014047074288312916
0.0004735031435182446,8.082903287389167e-05,0.00014047529726914868
0.00047325430138671267,8.080526982578626e-05,0.00014047604272719936
0.0004729921552561507,8.07796233055384e-05,0.00014047360677967342
0.00047271640747269743,8.075310681455327e-05,0.00014047027371374567
0.0004724268140899474,8.07272126977943e-05,0.00014046793640960786
0.0004721235309401959,8.070273928220921e-05,0.0001404667820971089
0.00047180939411987883,8.068000472647416e-05,0.00014046551111115792
0.0004714913549117188,8.065900219018814e-05,0.0001404624339320763
0.0004711754154466163,8.06392136090452e-05,0.00014045599048631395
0.0004708612072923355,8.061943862566385e-05,0.0001404453353168695
0.0004705426610891595,8.059842426352361e-05,0.00014043144549513598
0.0004702137453986171,8.057623124755433e-05,0.00014041672428811053
0.00046987289405550707,8.055400380279502e-05,0.00014040310347201954
0.00046951995826892466,8.053179928151946e-05,0.00014039029614846762
0.0004691540537151425,8.050879673827287e-05,0.00014037642399975019
0.0004687767755439086,8.048583326119202e-05,0.00014036206553201555
0.0004683965184759241,8.046496905536555e-05,0.00014035128849406171
0.0004680258707039561,8.044693977278904e-05,0.0001403471700968827
0.00046767282121406255,8.043057704180144e-05,0.00014034940037751563
0.00046733667857777475,8.041388429097541e-05,0.00014035552632726977
0.0004670116522349821,8.039547620755704e-05,0.00014036205059505088
0.0004666917550489888,8.037569309622068e-05,0.00014036604403896305
0.0004663721629479906,8.035620761894032e-05,0.00014036741710304367
0.0004660473439520376,8.033855833375762e-05,0.0001403684587082345
0.0004657126335773968,8.032318566583845e-05,0.00014037136064543463
0.0004653679491815986,8.030938326181473e-05,0.00014037693811058094
0.00046501515096669633,8.029553631589674e-05,0.00014038423431235602
0.0004646569049171921,8.028047344005242e-05,0.0001403904728332918
0.00046429938200075616,8.026509362177023e-05,0.00014039309518033897
0.00046395045876685185,8.025091056172404e-05,0.0001403913874554911
0.00046361354835657367,8.023747824436579e-05,0.00014038553616434348
0.0004632824881121029,8.022322565885928e-05,0.00014037653760407413
0.00046294710276231223,8.020792277368594e-05,0.000140365523586507
0.00046260315696417345,8.01921189494166e-05,0.0001403520664661087
0.0004622496937971719,8.017522109687239e-05,0.00014033496141197292
0.00046188443587243566,8.01564951415505e-05,0.00014031440648695035
0.00046150592763979004,8.013686700069194e-05,0.0001402923065526536
0.0004611147760681496,8.011797882573587e-05,0.00014027066680135896
0.00046071238226638695,8.010071259374974e-05,0.00014025019414966894
0.0004603004741893961,8.00851485099765e-05,0.0001402300011689204
0.0004598846087978209,8.007095097563955e-05,0.0001402084256802653
0.0004594717078179677,8.005749255042079e-05,0.00014018389266243274
0.0004590630802282722,8.004361674340409e-05,0.00014015539947488607
0.00045865361881629573,8.0028324926638e-05,0.00014012348387801334
0.0004582364437896575,8.001218817132388e-05,0.0001400904111423188
0.0004578078529325124,7.999685471291465e-05,0.00014005845473527844
0.00045736781761466453,7.998310569798035e-05,0.00014002804939618367
0.0004569181875519312,7.996992822697068e-05,0.0001399969678846406
0.00045645957837704845,7.995580401445853e-05,0.00013996407774644325
0.0004559934857388782,7.994078775362955e-05,0.000139933356696477
0.00045552703278263897,7.992603489854099e-05,0.0001399094409168422
0.0004550686382836374,7.991182192869748e-05,0.00013989295703937052
0.00045462462062816853,7.989693882209462e-05,0.00013988125646678288
0.00045419915667464057,7.988026836097731e-05,0.0001398702180880672
0.0004537906025605138,7.986240823821933e-05,0.0001398565693048257
0.00045339082683190586,7.984473309996625e-05,0.00013983989510266525
0.0004529891628240525,7.982823201946378e-05,0.00013982212511030756
0.0004525784544684253,7.981336814426567e-05,0.000139805533141852
0.00045215813737243415,7.979999071647606e-05,0.00013979150760096688
0.0004517300438972533,7.978729160804572e-05,0.0001397797918855595
0.00045129670794983207,7.977373861639137e-05,0.00013976808354766067
0.00045086366889857517,7.975841997313147e-05,0.0001397536714291505
0.0004504382151092834,7.974213625047811e-05,0.000139735523412033
0.00045002455377769854,7.972544866002183e-05,0.00013971355297704176
0.00044961860733544007,7.970751315037271e-05,0.00013968813352812593
0.0004492108613210518,7.96876374242406e-05,0.00013966035161301242
0.0004487964264837421,7.966576930462208e-05,0.0001396302553589509
0.000448375382025879,7.964184217513289e-05,0.0001395967575545434
0.0004479455989426992,7.961637247315673e-05,0.00013955990280515063
0.00044750392868214304,7.959073695596254e-05,0.00013952133837489904
0.0004470513722938752,7.956628970596475e-05,0.00013948304350171797
0.0004465914433674302,7.954382866195215e-05,0.00013944623313536807
0.0004461253689570208,7.952359183653585e-05,0.0001394106528510206
0.00044565561957614217,7.950535181847867e-05,0.00013937478417120204
0.00044518861175537434,7.94883711770099e-05,0.00013933678292565662
0.0004447276257431487,7.947141732896415e-05,0.0001392952296829971
0.00044427031078264563,7.945311794138296e-05,0.00013925012987058282
0.00044381227529454223,7.943303701336694e-05,0.00013920332308106422
0.00044334877862503807,7.941228289721102e-05,0.00013915724466072587
0.0004428762490114179,7.939226343513542e-05,0.0001391134616445563
0.00044239384574249217,7.937294070374466e-05,0.00013907123671260915
0.00044190232216230246,7.935325414506835e-05,0.00013902860655937803
0.00044140362506806636,7.933361982256814e-05,0.00013898675172612965
0.00044090212050007884,7.93158826831003e-05,0.00013894981977503637
0.00044040420090209827,7.930063571259272e-05,0.00013892002845545553
0.000439917325064621,7.928638955041154e-05,0.00013889590042805549
0.00043944747344647146,7.927110379136594e-05,0.00013887384927486704
0.0004389946514745475,7.925399573414445e-05,0.00013885004517651716
0.000438551986001918,7.923564255886545e-05,0.00013882275338844905
0.0004381096696668693,7.921685538528136e-05,0.00013879333165345406
0.0004376601088286436,7.919811200565734e-05,0.00013876422984166812
0.00043720112976971116,7.917945485893353e-05,0.00013873722744967086
0.0004367341666171092,7.916032479642078e-05,0.00013871267325616543
0.0004362619650097781,7.913984550232338e-05,0.00013868881255557625
0.00043578943261066134,7.91181133678305e-05,0.00013866290635688015
0.00043532313517849805,7.90965640628881e-05,0.0001386336244557942
0.00043486791300254094,7.907614769111474e-05,0.0001386006505302048
0.00043442182924207496,7.905589959531229e-05,0.00013856392583138803
0.00043397608976186405,7.903428301016434e-05,0.00013852466748774973
0.0004335248447939216,7.90110008370857e-05,0.00013848359971868892
0.00043306873931123083,7.898618491607778e-05,0.00013843961366977368
0.0004326070313056892,7.89593876609556e-05,0.00013839206154537794
0.00043213618713829673,7.893049148989187e-05,0.00013834227382693358
0.00043165468641774427,7.890044791499559e-05,0.00013829254988214962
0.000431163018975929,7.887047376907476e-05,0.00013824474383016862
0.0004306620634896244,7.884111610791476e-05,0.00013819903395197208
0.00043015370463137453,7.881206534284433e-05,0.00013815350699404998
0.0004296398122279174,7.878233346191527e-05,0.0001381054524262167
0.000429122079792811,7.875084247220324e-05,0.00013805332906744814
0.0004286031407507508,7.871738158315212e-05,0.00013799764591090622
0.0004280848285427829,7.868305196659692e-05,0.00013794018881212292
0.0004275656064225126,7.864963600300728e-05,0.00013788321427265482
0.0004270408536044894,7.861867473753761e-05,0.00013782866384982225
0.0004265071305138684,7.859035069888899e-05,0.00013777656462204735
0.0004259637841965899,7.856272549461825e-05,0.0001377246309343281
0.0004254113541635674,7.853420185398397e-05,0.0001376723779098723
0.000424852844313959,7.850589995535765e-05,0.00013762367489149509
0.00042429458116210463,7.847912518847149e-05,0.0001375820540651236
0.0004237447158081551,7.845315481966454e-05,0.00013754716766533492
0.00042321037523221036,7.842628713407354e-05,0.00013751595786000206
0.00042269303955198373,7.839767860136332e-05,0.0001374845204715828
0.00042218677414190657,7.836794261419574e-05,0.00013745020235471144
0.0004216821327710555,7.833810762118216e-05,0.00013741318483209513
0.00042117155648439114,7.83089699130319e-05,0.0001373756164173472
0.0004206524111296423,7.82810410825764e-05,0.00013733969567174758
0.0004201258068824564,7.825431451721819e-05,0.0001373064216760565
0.00041959459098060215,7.822783164382349e-05,0.00013727466360078294
0.0004190637457687949,7.82003995330713e-05,0.00013724162135469634
0.0004185396462972485,7.817235104982957e-05,0.00013720565017182694
0.0004180278198394825,7.814487468728612e-05,0.0001371669555416306
0.0004175293756944321,7.811759666212743e-05,0.00013712537295365945
0.00041703796725244826,7.808912720479611e-05,0.00013708082919986405
0.0004165449984653422,7.805930751095394e-05,0.00013703386953686975
0.00041604975377337937,7.802884656620022e-05,0.00013698424899483803
0.0004155578545438015,7.799772449498826e-05,0.00013693103261300555
0.0004150701262426151,7.7965292434748e-05,0.0001368742632182275
0.0004145812301869739,7.793175228718048e-05,0.00013681589849380002
0.0004140858471753567,7.789846278767546e-05,0.0001367583829256756
0.000413581358975941,7.786653987147466e-05,0.0001367025757208141
0.0004130679819013857,7.783594310412503e-05,0.00013664713862281017
0.0004125477183533192,7.780572926425825e-05,0.000136589650035008
0.00041202406553482516,7.777472593366782e-05,0.00013652838026003214
0.0004115021519933573,7.774193368859e-05,0.00013646318663274376
0.00041098618220386784,7.77071141802179e-05,0.0001363953379134434
0.0004104762617126155,7.767134406983367e-05,0.00013632697307805383
0.00040996764179667127,7.763621575224627e-05,0.00013626030642204233
0.00040945404830584886,7.76022921646327e-05,0.00013619618961769443
0.0004089328537163382,7.756852990181346e-05,0.0001361324777404005
0.00040840460600992607,7.753452214294307e-05,0.00013606748201628048
0.00040786924209984836,7.750211417501064e-05,0.00013600467614317133
0.00040732852802367815,7.747286422588425e-05,0.00013594878756179556
0.0004067896102151552,7.744611164239211e-05,0.00013590086188209596
0.000406261280734562,7.741979404260227e-05,0.00013585860371489333
0.0004057469800123525,7.739204855564283e-05,0.000135818316128779
0.0004052419350474165,7.736247483750669e-05,0.00013577637678280653
0.00040473724908459503,7.733201441485353e-05,0.00013573103377417908
0.0004042264953420319,7.730192931698605e-05,0.00013568353944199926
0.00040370958504985625,7.727304422570116e-05,0.0001356360809718298
0.0004031912933719244,7.724541587660817e-05,0.0001355897200398516
0.0004026757705139729,7.721823543800243e-05,0.00013554390907145588
0.00040216262276463117,7.719005772256644e-05,0.00013549653561101326
0.00040164908761919675,7.716014961843227e-05,0.0001354459265605034
0.0004011365328052638,7.712931254849975e-05,0.00013539231289226678
0.00040063039856373065,7.709800459460852e-05,0.00013533566281221003
0.0004001319684391315,7.706543618346415e-05,0.00013527536201739108
0.0003996348954121975,7.703123563644394e-05,0.00013521188312549197
0.00039913559195759997,7.699599983687444e-05,0.00013514559824344714
0.00039863996848146484,7.696006842741664e-05,0.00013507588746851156
0.0003981517723976917,7.692290825868502e-05,0.00013500269013651313
0.0003976665202315725,7.688435672260979e-05,0.0001349277525711054
0.00039717841010193666,7.68455183070262e-05,0.00013485355001453868
0.00039668387523322525,7.680753083443318e-05,0.00013478139370745577
0.00039618060924972455,7.677046207334406e-05,0.00013471047540958324
0.0003956679804798899,7.67334857083866e-05,0.00013463836438782912
0.00039514856441522463,7.669549452027187e-05,0.00013456301126547608
0.0003946269793331546,7.665561043401841e-05,0.00013448423628705688
0.000394106682364563,7.661367802347027e-05,0.00013440341205172136
0.0003935875600027699,7.657064915536068e-05,0.00013432275638809488
0.00039306535164508534,7.652822965703285e-05,0.00013424478863163745
0.00039253589073432984,7.648785946079152e-05,0.0001341710714192343
0.00039199846433117015,7.644905390205146e-05,0.00013410037509304192
0.0003914530007847909,7.64105248469435e-05,0.00013403011007586947
0.0003908998844607579,7.637346375562652e-05,0.0001339611385688349
0.0003903423649249482,7.634037301793747e-05,0.00013389752635199412
0.0003897867549661719,7.631195261657442e-05,0.00013384146606865597
0.00038923937672315977,7.628680502325083e-05,0.00013379145608814137
0.0003887035932249415,7.626254892153755e-05,0.00013374400734344406
0.0003881809908651641,7.623741280709131e-05,0.00013369553000789011
0.0003876719333686835,7.621147253615207e-05,0.000133644528499026
0.0003871719496844152,7.618574345087416e-05,0.0001335923771377838
0.0003866725560255675,7.616065459442165e-05,0.00013354108757391298
0.0003861704928052865,7.613587151950889e-05,0.0001334917028864132
0.0003856690495015433,7.611052605447417e-05,0.00013344400286553897
0.00038516875836352977,7.608366573662636e-05,0.00013339627103088646
0.0003846661373917025,7.605536882954906e-05,0.00013334631698258456
0.00038416129264242526,7.6026964939253e-05,0.00013329328371393476
0.0003836596871471164,7.599937651132798e-05,0.0001332371780511215
0.0003831648578234965,7.597171083846845e-05,0.00013317769487304615
0.00038267175226688015,7.594280054625086e-05,0.00013311504931070103
0.00038217581534507103,7.591322894353776e-05,0.00013304971529304086
0.0003816834421716229,7.588396593966811e-05,0.0001329812470461383
0.00038120065341333884,7.585459523504866e-05,0.00013290925836074533
0.00038072393425414607,7.58240231704687e-05,0.00013283503849376223
0.0003802469933054671,7.579206893424683e-05,0.00013276100354489489
0.0003797662764613173,7.575954561572785e-05,0.00013268893384596966
0.00037927986600910156,7.572693072618351e-05,0.00013261863082624384
0.00037878590091222305,7.56938301555656e-05,0.00013254787110915682
0.00037828524495772485,7.56595548416206e-05,0.00013247422359864382
0.0003777829736288635,7.562362378751045e-05,0.00013239688450436478
0.00037728382665972994,7.558563951055001e-05,0.00013231677591413483
0.0003767887737565667,7.55455240572739e-05,0.0001322359088891895
0.00037629597156096066,7.550412753194276e-05,0.0001321569102466975
0.00037580215716798783,7.546270942695e-05,0.00013208182371390146
0.0003753050413842767,7.542147207171601e-05,0.0001320104123504748
0.0003748032266795845,7.537963539183592e-05,0.00013193975239581947
0.000374297059835798,7.533760242801898e-05,0.0001318683252556329
0.00037379085520497046,7.529731932863012e-05,0.00013179933918024006
0.0003732883477346162,7.526002893941335e-05,0.00013173644695021477
0.0003727905923311682,7.522507152267691e-05,0.00013167989402579694
0.0003722989750359753,7.519052607743784e-05,0.00013162725869420404
0.0003718162428868127,7.515485998226028e-05,0.00013157470424479515
0.0003713444962300158,7.511827632782204e-05,0.00013151961875790166
0.0003708807482429781,7.508186419516876e-05,0.00013146262583237333
0.0003704175049737335,7.504614075116127e-05,0.00013140556458637306
0.00036995179016618295,7.50108412931947e-05,0.00013134953549435714
0.0003694875660025367,7.497513433512627e-05,0.00013129469526817748
0.000369026668817886,7.493808336753878e-05,0.00013123989777509763
0.000368566020315346,7.489978094397609e-05,0.00013118315971096962
0.00036810451767408487,7.486171340461404e-05,0.00013112358996054247
0.000367646851231462,7.482527375307295e-05,0.00013106165947644638
0.00036719785419439196,7.47902318329539e-05,0.0001309970861766937
0.0003667543960585719,7.47548761415065e-05,0.00013092921664844198
0.0003663109579503458,7.471806892133371e-05,0.00013085823915125194
0.00036587120291492356,7.468029820479243e-05,0.0001307839394955165
0.0003654412725768097,7.464175348865524e-05,0.00013070607076868946
0.00036501843870664625,7.460190496092624e-05,0.00013062607679313018
0.0003645957564578816,7.456121349183002e-05,0.00013054650735119588
0.0003641694564467213,7.452086011119024e-05,0.0001304695024809881
0.00036373747559598647,7.448137585330126e-05,0.0001303955073222907
0.0003632996819084032,7.444230221325808e-05,0.00013032276251049468
0.0003628600512186573,7.44025081309262e-05,0.00013024852551040477
0.0003624207424775615,7.436118376552629e-05,0.00013017124006129763
0.00036197902872599555,7.431874574714404e-05,0.00013009166922467143
0.0003615331546177399,7.427621721607989e-05,0.0001300118855427079
0.0003610851295871785,7.423455104951492e-05,0.00012993404021956537
0.00036063728178556723,7.41946289611851e-05,0.00012985979569139
0.00036018975630138726,7.415659221230675e-05,0.0001297893921321555
0.00035973968367980497,7.411904263366437e-05,0.0001297204855233195
0.00035928436406194804,7.40806339257327e-05,0.00012965091234044506
0.00035882594634258877,7.404219010844848e-05,0.00012958300998577315
0.00035836788748431483,7.400523250038903e-05,0.0001295209269124786
0.00035791171860909647,7.39698169024322e-05,0.00012946590445500795
0.0003574592508136346,7.39345747062493e-05,0.00012941596111031
0.0003570137579795382,7.389819825712037e-05,0.0001293673465684139
0.0003565781193142272,7.386088532510573e-05,0.00012931695825374982
0.0003561505477487784,7.382369788342354e-05,0.0001292645739945834
0.0003557239615840138,7.378720510559626e-05,0.00012921194776610427
0.00035529468492686173,7.375137632206759e-05,0.00012916067197714628
0.0003548669558251387,7.371587460107058e-05,0.0001291113350866353
0.00035444376277289917,7.368003342573404e-05,0.00012906313124520137
0.00035402194746248986,7.364295838030952e-05,0.0001290137240731379
0.00035359906677328174,7.360457087775904e-05,0.00012896150062919007
0.0003531794516277646,7.35660833376138e-05,0.00012890728523832777
0.000352769976805138,7.352815094926646e-05,0.00012885130100984474
0.00035237051018987403,7.348974587318327e-05,0.00012879241276038481
0.0003519734852183076,7.344992387234475e-05,0.0001287304244545107
0.0003515750636728074,7.340895167408127e-05,0.00012866521465123174
0.0003511793166545482,7.336701208339921e-05,0.00012859631566379716
0.0003507906966955699,7.332350037668529e-05,0.00012852427420982494
0.00035041100657015926,7.327812520259108e-05,0.0001284506695957679
0.0003500391298161223,7.323184477846364e-05,0.00012837753725086982
0.000349668811672667,7.318607649926176e-05,0.00012830629430346388
0.0003492946307322162,7.314150010536083e-05,0.00012823641519902536
0.0003489184140245949,7.309781556749611e-05,0.00012816570822453624
0.00034854231085546693,7.305393242069044e-05,0.00012809228761654688
0.0003481638568665872,7.300875142303293e-05,0.0001280161736720682
0.0003477813536618791,7.296227253615479e-05,0.00012793882113475944
0.0003473970387467471,7.291567246983674e-05,0.0001278621235849798
0.00034701396247398324,7.287047266971114e-05,0.00012778801231900838
0.0003466326174706864,7.282755878263172e-05,0.00012771756601495527
0.0003462504803080742,7.278620954129313e-05,0.00012764959862156822
0.0003458638254817036,7.274492462053734e-05,0.00012758178266540534
0.00034547165897543496,7.270403592837806e-05,0.0001275149155807338
0.000345076183594649,7.266579775282186e-05,0.0001274531402148346
0.0003446797672380902,7.263174606167136e-05,0.00012739911896304383
0.00034428491304371007,7.260144147690213e-05,0.0001273517940290003
0.00034389551710434837,7.257296586309839e-05,0.0001273076581564262
0.0003435154543004768,7.254424024404065e-05,0.00012726272414386505
0.00034314417719882146,7.25147467941977e-05,0.00012721503158678464
0.00034277443483914853,7.248530809561365e-05,0.00012716539379945934
0.00034240113377883837,7.245636163466962e-05,0.0001271154925672717
0.0003420287298466196,7.242752622105831e-05,0.0001270664413053756
0.0003416629006847836,7.239807641129334e-05,0.00012701804756823273
0.00034130412465463385,7.236717663685338e-05,0.0001269683345653197
0.0003409505460283921,7.23345632400452e-05,0.00012691579537203436
0.0003406002813030629,7.230087911138988e-05,0.00012686113854811434
0.0003402516470912955,7.226638615247895e-05,0.00012680448617422612
0.00033990252829761204,7.22304777141629e-05,0.00012674476193450386
0.0003395494241322065,7.219290884518562e-05,0.00012668179680860078
0.00033919095512127624,7.215415083061751e-05,0.00012661555672648556
0.00033883194674290466,7.21144808043636e-05,0.00012654563739176544
0.0003384790118665267,7.207342504827915e-05,0.00012647236409307462
0.0003381357517520275,7.203070676958699e-05,0.00012639709476602515
0.0003378016351305584,7.198727842501444e-05,0.00012632188803233385
0.00033747129018141015,7.19444661390386e-05,0.00012624857063453507
0.00033713848864173765,7.190286890435022e-05,0.00012617733723236223
0.0003368023787437321,7.186222195570816e-05,0.00012610640382744733
0.00033646512988951916,7.182156909822734e-05,0.0001260335085312104
0.0003361260070170276,7.177966692126256e-05,0.00012595807095636122
0.0003357836176519018,7.173581116854278e-05,0.00012588143111384617
0.0003354399527082099,7.169039135582534e-05,0.00012580546276099195
0.00033509819862364643,7.164454393802031e-05,0.00012573200856984208
0.00033475885444566125,7.159955797040641e-05,0.00012566247163062352
0.00033441936441424967,7.155591758936402e-05,0.00012559651521099407
0.00033407544804868884,7.151255508968304e-05,0.00012553149108978856
0.00033372432777559213,7.146893690141439e-05,0.00012546645640618704
0.00033336694104436584,7.14269305169574e-05,0.00012540528735764813
0.00033300556986302367,7.138827276766174e-05,0.00012535176916066964
0.00033264282514090804,7.135246362817199e-05,0.00012530557819717136
0.00033228177597262516,7.131758007342761e-05,0.00012526363670293638
0.000331924175366815,7.128182864422002e-05,0.00012522199714916525
0.0003315695390327968,7.12448621366525e-05,0.00012517804443865885
0.00033121665585125363,7.120752318118419e-05,0.00012513228181104162
0.00033086328064677945,7.117053560710444e-05,0.00012508703257158528
0.00033050709078670786,7.11337179762074e-05,0.00012504390622173326
0.00033015090074540847,7.109603980965973e-05,0.00012500266411699974
0.00032980039232703245,7.105674025694315e-05,0.0001249612046678859
0.00032945721590415264,7.101631858841746e-05,0.00012491747076939083
0.0003291187629579965,7.09757320515331e-05,0.00012487143551179048
0.00032878197283374064,7.093516558117571e-05,0.00012482348816829573
0.0003284452192788515,7.089376232015412e-05,0.00012477285935002237
0.00032810617841063923,7.085087810219588e-05,0.000124719020397678
0.0003277626576326242,7.080722130143864e-05,0.00012466206371843222
0.0003274177624208444,7.076372700116825e-05,0.00012460170696204138
0.00032707849092840124,7.072041785036828e-05,0.0001245378473513684
0.00032674971415556263,7.067645460518496e-05,0.00012447147356541282
0.00032643139836375867,7.063114849554673e-05,0.00012440447588432164
0.00032611867319757063,7.058511897590938e-05,0.0001243389788908723
0.0003258045025395508,7.053959014856664e-05,0.00012427597360242988
0.00032548587565571084,7.049510514692148e-05,0.00012421421826493319
0.00032516474299622007,7.04512493156319e-05,0.0001241510552176323
0.00032484127132072763,7.040690821249759e-05,0.00012408501662520966
0.0003245142471542274,7.036108447900661e-05,0.00012401703880315565
0.0003241860814436293,7.031383033102303e-05,0.0001239489509917191
0.00032386069077195356,7.026623343193084e-05,0.00012388274453044304
0.00032353923037845147,7.021964784564776e-05,0.0001238205157593024
0.00032322096782993597,7.017458876297187e-05,0.00012376300662129023
0.0003229051896053754,7.012983172829636e-05,0.00012370776181755655
0.00032258854631490814,7.008424348142079e-05,0.00012365223267586686
0.000322268523014252,7.003893368362913e-05,0.00012359856043093348
0.000321950161383668,6.999545716436964e-05,0.00012355045073314142
0.0003216392547217879,6.995405013083938e-05,0.0001235087560772732
0.0003213354918531861,6.991396726626076e-05,0.00012347173483634636
0.00032103557517163515,6.987381367889734e-05,0.0001234362183691178
0.00032073695961585386,6.983256225377403e-05,0.00012339919288179542
0.0003204393856641235,6.97907428831359e-05,0.00012336000174002423
0.0003201424269075293,6.974959728715551e-05,0.00012332042870099574
0.00031984358865552465,6.970941736410163e-05,0.00012328229131909133
0.00031954371455997216,6.96692313858332e-05,0.0001232459060839367
0.000319248495239157,6.96279397387028e-05,0.00012320994665926646
0.00031896092758992465,6.958566483314095e-05,0.0001231722747683556
0.00031867859165591553,6.954343502044643e-05,0.0001231320187696195
0.00031839803272696584,6.950189548840902e-05,0.0001230898037737138
0.00031811816621239616,6.946068236533599e-05,0.00012304537423621093
0.00031783844759457347,6.941865167642389e-05,0.00012299767870826923
0.00031755616996679805,6.937508330748422e-05,0.00012294649498534562
0.0003172714640700633,6.933035247967379e-05,0.00012289175083101664
0.0003169911897998375,6.928496087698571e-05,0.00012283333689833267
0.0003167222438068774,6.923876942337392e-05,0.0001227720237562608
0.0003164653020118776,6.919134186833011e-05,0.00012270950711377036
0.0003162154655249592,6.914292331972392e-05,0.00012264802548545386
0.00031596538505168783,6.909464350176065e-05,0.00012258916957414757
0.00031571102123519073,6.904744695149864e-05,0.00012253228886030954
0.00031545514929907004,6.900132150789347e-05,0.00012247473113383711
0.0003152017316057504,6.895524086300456e-05,0.0001224143572609661
0.0003149511122967264,6.890809042971944e-05,0.00012235138017868571
0.00031470031822261477,6.88600418611606e-05,0.00012228774229242835
0.00031444490324298967,6.88124413697857e-05,0.0001222260431511415
0.0003141831188567761,6.876663149629354e-05,0.00012216865264888985
0.00031391785858170783,6.87230115026898e-05,0.00012211639840141537
0.00031365378007043604,6.868040167723175e-05,0.00012206730751578124
0.00031339131149888826,6.863746448943132e-05,0.00012201852873232822
0.000313127520585456,6.859495139931677e-05,0.00012197080652208361
0.00031286449201540785,6.855458591216234e-05,0.00012192776825117874
0.0003126074278330272,6.851689860362392e-05,0.00012189143540104206
0.00031235702319385193,6.84810613661551e-05,0.00012186095215319303
0.00031211038532163294,6.844553654320289e-05,0.00012183363571137944
0.00031186515937330783,6.840901490505786e-05,0.00012180585628415273
0.00031162112299813917,6.837150761276423e-05,0.000121775498444825
0.0003113782791578969,6.83341878278841e-05,0.00012174385991829993
0.0003111339778883791,6.829792227750435e-05,0.00012171315210941014
0.0003108878441227732,6.826245116735814e-05,0.0001216840915606774
0.00031064574244834707,6.82266847056751e-05,0.00012165575975580631
0.0003104117826433534,6.818963348165086e-05,0.00012162596423166622
0.00031018341286342195,6.815132060753154e-05,0.00012159335800051194
0.0003099560132292568,6.811244958507208e-05,0.00012155868693858664
0.0003097282907353141,6.807327520898047e-05,0.00012152232760111287
0.00030950144771878046,6.803313994136682e-05,0.00012148321556028925
0.00030927281614673643,6.799152278835183e-05,0.00012144054755933016
0.0003090397822114148,6.794904809736288e-05,0.00012139409209704929
0.00030880739888302836,6.790639822077306e-05,0.00012134390050898585
0.00030858097965745843,6.786304155609751e-05,0.00012129083708657913
0.0003083607691842426,6.781826367313677e-05,0.00012123655403015059
0.0003081475015788634,6.777248423650825e-05,0.00012118290607072167
0.00030794275492575804,6.77264367852592e-05,0.000121131080923686
0.00030774176591799964,6.76804389743824e-05,0.00012108066101597037
0.00030753819034692604,6.763462204061072e-05,0.00012102977594518489
0.00030733475983482015,6.758880486883861e-05,0.00012097644395836985
0.0003071357888961259,6.754219704789285e-05,0.00012092023763487542
0.00030693881306457274,6.749433651771753e-05,0.00012086277670510213
0.000306738518462144,6.74463263116091e-05,0.00012080666102075488
0.000306532442651422,6.739978845771152e-05,0.00012075428880250279
0.00030632287962712736,6.735542671272206e-05,0.0001207068688039038
0.00030611424008470664,6.731261203565634e-05,0.00012066329115024673
0.0003059080207517417,6.726986060062314e-05,0.00012062052197135562
0.00030570115037035085,6.722674969952387e-05,0.00012057769004166906
0.0003054930746641837,6.718454701225114e-05,0.00012053807399209772
0.0003052883361205866,6.714447871932216e-05,0.00012050480388593236
0.0003050888336682843,6.710673736147752e-05,0.0001204779249698805
0.00030489223874194567,6.707067584099795e-05,0.00012045521043516483
0.000304696410905225,6.703496531868245e-05,0.00012043322479744625
0.00030450130565586226,6.699831946834212e-05,0.00012040929476414693
0.0003043078857072185,6.696052013740335e-05,0.00012038350013779419
0.00030411353801963325,6.692204356958054e-05,0.0001203576001814893
0.0003039162515037712,6.688289473225241e-05,0.000120332740057711
0.00030372206588917826,6.684243110623756e-05,0.00012030870078667283
0.00030353700192080454,6.680029575147866e-05,0.00012028380277666583
0.00030336039025666164,6.675716826734285e-05,0.0001202564995581623
0.0003031901123051328,6.671430456659398e-05,0.00012022734179219543
0.00030302596951379445,6.667243610452913e-05,0.00012019708345578508
0.000302864950575741,6.663074409335322e-05,0.00012016488664122341
0.00030270205424068276,6.6588137135362e-05,0.00012013008769813593
0.0003025386711772473,6.6544902708114e-05,0.00012009269818582906
0.00030237970355219266,6.65011979988465e-05,0.00012005228872575016
0.00030222636716484644,6.645635477168778e-05,0.00012000886621052664
0.00030207743217294027,6.641017807820799e-05,0.0001199637075766258
0.00030193387722876256,6.636313166696118e-05,0.00011991852688463221
0.00030179832728868697,6.631569903375965e-05,0.00011987462654973938
0.0003016679939675775,6.626822272664112e-05,0.00011983218714752842
0.0003015366366217654,6.622081858978606e-05,0.0001197899456246604
0.00030140449338144867,6.617308503308472e-05,0.00011974580471475863
0.000301275280524538,6.612424419678141e-05,0.00011969856687418201
0.0003011476801992141,6.607413135645728e-05,0.00011964928643977752
0.0003010165521463852,6.602388807451336e-05,0.00011960043811436647
0.0003008790347944931,6.597509871990305e-05,0.00011955456875590672
0.00030073723127851135,6.592868270168103e-05,0.00011951345607379392
0.0003005956953154616,6.588432080534016e-05,0.00011947705654141887
0.0003004570739872044,6.584051185502423e-05,0.00011944245913544443
0.00030031831278922827,6.579663594610337e-05,0.00011940721903153688
0.0003001765230971956,6.575430641469843e-05,0.00011937381139607318
0.0003000355289009872,6.571531232359018e-05,0.00011934635882240467
0.0002998979832817642,6.56799303405361e-05,0.0001193261173018977
0.00029976180824493144,6.564712810553679e-05,0.00011931146883214364
0.00029962494744466316,6.561512101636127e-05,0.00011929912626052865
0.0002994862977074345,6.558229073869203e-05,0.00011928562922192117
0.00029934439305420626,6.554812323061772e-05,0.0001192695938541609
0.0002991965162791435,6.551308361705731e-05,0.00011925248696779805
0.0002990408865761423,6.547776413947798e-05,0.00011923657520813287
0.0002988788752406315,6.544230452090642e-05,0.00011922293443435334
0.0002987142113425475,6.540611569222036e-05,0.00011921048617781953
0.0002985513608084584,6.53689701716255e-05,0.00011919682404408307
0.0002983941082477794,6.533208543630097e-05,0.00011918103707896392
0.000298244478978751,6.529672455498606e-05,0.00011916376460503483
0.0002981000073633366,6.526254522381465e-05,0.00011914451318379186
0.00029795463851204875,6.522806029618651e-05,0.00011912244898376545
0.0002978067101094141,6.519239917856632e-05,0.00011909784831280957
0.00029766027896185686,6.515565765501287e-05,0.00011907038634884596
0.00029751822366551637,6.511760432723049e-05,0.00011903950277206435
0.0002973804616841362,6.507790011595498e-05,0.00011900614225613017
0.0002972478281988622,6.503704667774897e-05,0.00011897197651817575
0.00029712307331009074,6.49957535008412e-05,0.00011893840868103206
0.0002970052624764702,6.495431367708045e-05,0.00011890614526819105
0.0002968884363139541,6.491273287680787e-05,0.00011887455887441815
0.000296770605269021,6.487066629439593e-05,0.00011884179102667832
0.00029665536281906337,6.482754583165365e-05,0.00011880622772724117
0.0002965429735979199,6.478360768957613e-05,0.00011876813337919236
0.0002964285879778855,6.474041698959726e-05,0.00011872952924087538
0.0002963089482963105,6.46997477896636e-05,0.00011869291197999104
0.00029618597676349937,6.466265096416269e-05,0.0001186602735388418
0.00029606384924686364,6.462931532523627e-05,0.00011863233855313557
0.0002959458696810589,6.459847524292998e-05,0.00011860727334795889
0.0002958316570802623,6.456813066265617e-05,0.00011858257290070375
0.00029571583912950974,6.453804548071418e-05,0.00011855970954210756
0.0002955953003222014,6.45095384180316e-05,0.00011854266385359493
0.00029547524403142605,6.448283242278932e-05,0.00011853280531195571
0.0002953634131664063,6.445648465525624e-05,0.00011852808778655059
0.0002952618796700567,6.44290296896998e-05,0.00011852512321221134
0.00029516598797025493,6.440030641284157e-05,0.00011852061641796402
0.00029506874128747775,6.437126967637625e-05,0.00011851303509049307
0.0002949646336447024,6.434299584268426e-05,0.00011850367869398929
0.00029485125598713226,6.431610556974327e-05,0.00011849483516264002
0.0002947296754991619,6.429057445222255e-05,0.00011848775420216318
0.00029460384058534097,6.42654472233492e-05,0.000118481766081999
0.0002944790552741954,6.423961123993153e-05,0.00011847458057066728
0.0002943595949022146,6.42133753567507e-05,0.00011846501889270402
0.00029424736900467006,6.418797058899508e-05,0.00011845403985977344
0.0002941407305319589,6.416343287873573e-05,0.00011844164132813949
0.00029403350684134344,6.413865038962046e-05,0.000118426544119967
0.00029392130867623707,6.411332875252753e-05,0.00011840844099306982
0.0002938071932990084,6.408800172189773e-05,0.00011838710777168576
0.0002936958564292065,6.406260449698712e-05,0.00011836218009441227
0.0002935888935914421,6.403628690049706e-05,0.00011833455423164599
0.0002934874323930575,6.400830285297974e-05,0.00011830583691945012
0.00029339438168229454,6.397874651894933e-05,0.00011827756718581948
0.000293310168729634,6.394841771821991e-05,0.00011825096265317716
0.0002932286411882872,6.39182730232801e-05,0.00011822601058719368
0.0002931454653394443,6.38888035562278e-05,0.00011820108866444473
0.00029306421377514694,6.385963508164484e-05,0.000118173990653652
0.0002929883480878918,6.382968547927801e-05,0.00011814385503823569
0.0002929167576418727,6.379831188885602e-05,0.00011811205759457643
0.0002928469006432538,6.376633997661835e-05,0.00011808109949729709
0.00029277504818375413,6.373539599402065e-05,0.00011805363774424552
0.00029269662446586796,6.370662565465618e-05,0.00011803159638429454
0.0002926112965790134,6.367929838308999e-05,0.00011801432330002546
0.0002925229017422161,6.365219316163432e-05,0.00011799853811238262
0.00029243204286239204,6.362670680281088e-05,0.00011798312146097097
0.0002923365608818162,6.36053416491357e-05,0.00011797149493880486
0.00029223959349964143,6.358866024156668e-05,0.00011796646009423787
0.00029214881676078124,6.357515496306431e-05,0.00011796710916101983
0.00029206777465985224,6.356253858263193e-05,0.0001179705657731354
0.000291992898055045,6.354904022210166e-05,0.00011797353242333272
0.00029191764453030016,6.353430528802456e-05,0.00011797382443532271
0.00029183668039100424,6.351919384969256e-05,0.00011797179210939485
0.00029174692570578813,6.350453142558662e-05,0.0001179695134483147
0.00029164804143129723,6.349035435163231e-05,0.00011796882383681479
0.00029154368361489647,6.347579133240291e-05,0.00011796993801160851
0.00029144002061988846,6.34600808423594e-05,0.00011797087740105354
0.0002913417951288207,6.344399333182091e-05,0.00011796961346820186
0.00029125074550584765,6.342904029712758e-05,0.00011796653085538629
0.00029116570408694876,6.341564828993805e-05,0.00011796228563876647
0.00029108123589505387,6.340248979591459e-05,0.00011795590930994126
0.00029099169249162296,6.338822458446836e-05,0.00011794663759329611
0.00029089812226502606,6.337317761464511e-05,0.00011793423137907534
0.0002908055354620322,6.335793150623072e-05,0.0001179182936128071
0.0002907167795487697,6.334212250726998e-05,0.00011789917443857996
0.0002906316473803683,6.332499584176137e-05,0.00011787810917464423
0.0002905495169999728,6.330643756488254e-05,0.00011785675352727982
0.000290470400407432,6.328727733608951e-05,0.00011783673274988108
0.000290392852781278,6.32682529348771e-05,0.00011781827117629088
0.00029031230073312924,6.324942897634459e-05,0.00011779958742016453
0.0002902257866029586,6.323057642709655e-05,0.0001177783660635412
0.0002901371628203195,6.321131991750933e-05,0.00011775376673535329
0.0002900515515986601,6.319095606894454e-05,0.00011772685299152441
0.0002899695902047911,6.316908039955835e-05,0.0001176997394067749
0.00028988747585923484,6.314647207589642e-05,0.00011767504238971687
0.0002897996036950809,6.312429279016984e-05,0.00011765499918980606
0.0002897044089181583,6.310236657160789e-05,0.0001176396973600737
0.0002896056983389804,6.307998828498667e-05,0.00011762589674636424
0.0002895058771143516,6.305825254077638e-05,0.00011761134763302898
0.00028940289661357615,6.303926539637932e-05,0.00011759926447241601
0.0002892976206409969,6.302390298694608e-05,0.00011759360032335573
0.0002891970937640998,6.301139331624836e-05,0.00011759453397909294
0.00028910616935934693,6.300023811919789e-05,0.00011759972062190949
0.00028902217776947785,6.298915400704207e-05,0.00011760597928730432
0.00028893867567045045,6.29771082196688e-05,0.00011761048562945327
0.0002888503156150742,6.2963455845072e-05,0.00011761246634015349
0.0002887543375482028,6.294849142612039e-05,0.00011761366420159947
0.00028864994329715304,6.29329709494594e-05,0.00011761623166332105
0.0002885396548161899,6.291707436141084e-05,0.00011762072588884833
0.0002884300468520259,6.290011547937951e-05,0.00011762551635680814
0.00028832702155433384,6.288167250658843e-05,0.00011762839564837616
0.0002882327075367581,6.286265987454962e-05,0.00011762921382003138
0.0002881475318047709,6.284412943744839e-05,0.00011762893373451228
0.0002880702753365915,6.282567668098343e-05,0.00011762674393434772
0.00028799466070089517,6.280633124403849e-05,0.00011762122186757244
0.0002879166276200182,6.278640756558002e-05,0.0001176124997234869
0.0002878435923906227,6.276701455220615e-05,0.00011760072553933752
0.000287782926941478,6.274847652576887e-05,0.00011758556112521471
0.0002877320756350003,6.273001403435063e-05,0.00011756789274327771
0.00028768519319181013,6.27105607985208e-05,0.00011754978887688916
0.0002876395024048805,6.26899072229682e-05,0.00011753313656981632
0.0002875947372115531,6.266862935905504e-05,0.00011751832875717563
0.0002875485858850439,6.264696672147966e-05,0.00011750383265431471
0.0002874978797953978,6.262450374261379e-05,0.00011748732896953172
0.00028744467921790483,6.260057915780039e-05,0.00011746738109038827
0.0002873939108491102,6.257493597653448e-05,0.00011744428039985432
0.0002873469726619129,6.254829102881983e-05,0.00011741984034642524
0.0002873005502302277,6.252216553517359e-05,0.00011739676450160582
0.00028724916812470627,6.249836664505962e-05,0.00011737771515345296
0.00028719042614722373,6.247790255602137e-05,0.00011736375161089687
0.00028712775874179376,6.245964654307718e-05,0.00011735276920077673
0.00028706493219172427,6.24417154675103e-05,0.00011734195992219124
0.000286999727448664,6.242431175613025e-05,0.00011733263989415166
0.0002869304909316231,6.240881366629622e-05,0.00011732867427385688
0.0002868636781383305,6.239518323291243e-05,0.00011733153635647603
0.0002868054815374251,6.238198647622822e-05,0.00011733963110493384
0.00028675411852303645,6.23677074175198e-05,0.00011735004289356608
0.00028670345022693583,6.235178517893402e-05,0.0001173594674499934
0.0002866479116358325,6.233489474916503e-05,0.00011736593311761068
0.00028658444224476646,6.231816188277919e-05,0.00011737040963408082
0.0002865141068426663,6.230237741371226e-05,0.00011737506329042167
0.0002864416322053927,6.228760767682388e-05,0.0001173811021767749
0.0002863697244910755,6.227307331765283e-05,0.00011738816504368166
0.00028629642558901825,6.22577302927048e-05,0.00011739413491393892
0.00028622061608079457,6.224161200460089e-05,0.00011739740627016889
0.00028614640808273057,6.22260218664593e-05,0.00011739882077003045
0.00028607899861701975,6.2211595379966e-05,0.00011739882276174596
0.0002860168668638151,6.219718069018551e-05,0.00011739620023411962
0.0002859551664696472,6.218156158541093e-05,0.00011739036136548545
0.00028589703950260254,6.216493376254698e-05,0.00011738135312966684
0.00028584954206415855,6.214745735925675e-05,0.0001173689827776687
0.00028581245411831227,6.212871230395948e-05,0.00011735378286815386
0.00028578025845941383,6.210907472907786e-05,0.00011733751507759118
0.0002857495056769692,6.208955597405321e-05,0.00011732220877723047
0.00028572023034968393,6.20706996315545e-05,0.00011730900717199527
0.00028569138384915437,6.205236096895036e-05,0.00011729727056630327
0.00028565951963463004,6.203418507941487e-05,0.00011728484241655735
0.00028562499855952657,6.201588636547072e-05,0.00011726960286604657
0.0002855926332775072,6.19969535960123e-05,0.00011725102238497684
0.0002855646401215069,6.197676169094043e-05,0.00011723048470823239
0.00028553798424809404,6.195562001615738e-05,0.00011721050602107974
0.00028550684964358475,6.19350946246342e-05,0.00011719383008149192
0.0002854678800348353,6.191662490509086e-05,0.00011718210181547047
0.0002854245691706014,6.189976226502452e-05,0.00011717422057804684
0.00028538266921406436,6.188309514798577e-05,0.0001171670976140306
0.00028534150853303,6.186711938051605e-05,0.00011716039624867097
0.00028529637688071217,6.185374865414571e-05,0.00011715800284479282
0.00028524734070781236,6.1843645804166e-05,0.00011716282261780332
0.00028519891865795127,6.183567920610503e-05,0.00011717397007818218
0.0002851558540025651,6.182787969768524e-05,0.00011718827335523789
0.000285121303077393,6.181915568289144e-05,0.00011720176015723641
0.000285093551663774,6.181019857308206e-05,0.00011721212823416888
0.0002850650585920562,6.180208897662644e-05,0.00011722026375692948
0.00028503067646987044,6.179524982742398e-05,0.00011722820139638673
0.00028499340732902634,6.17894791090371e-05,0.00011723734585831597
0.0002849564655329514,6.178396404140251e-05,0.00011724798114612032
0.000284918264907427,6.177760146874898e-05,0.00011725865197403168
0.00028487769278322597,6.177018253970285e-05,0.00011726738354879674
0.000284838205759311,6.176291194182396e-05,0.00011727391161036752
0.00028480520049279864,6.175663240540134e-05,0.00011727865786362334
0.0002847791232159797,6.175035947270537e-05,0.00011728094930495416
0.00028475460188320383,6.174301298937358e-05,0.00011728042917633835
0.00028473085837450274,6.17352776886014e-05,0.00011727756600909873
0.00028471446441869,6.172793872958402e-05,0.0001172718889135064
0.0002847076926743886,6.172034289991372e-05,0.0001172627475129758
0.0002847058103335681,6.171150644958955e-05,0.00011725132315107111
0.0002847048778821572,6.170142269043529e-05,0.00011723979861397715
0.00028470523968620383,6.169075180573674e-05,0.00011722973733380238
0.0002847076069631598,6.167988510871877e-05,0.00011722112516042987
0.00028470871508641597,6.166887555345993e-05,0.00011721224010267939
0.00028470711480138626,6.165762300167585e-05,0.00011720086830243598
0.0002847074070068414,6.164569920946012e-05,0.00011718594623982293
0.00028471300178867524,6.16324111499698e-05,0.00011716839173185788
0.00028472305650847766,6.161776708747736e-05,0.0001171505178418417
0.00028473514045001977,6.160307741485499e-05,0.00011713508977654237
0.000284746332366022,6.158990032450144e-05,0.00011712432615974854
0.00028475375990139496,6.157856518480515e-05,0.00011711852756380765
0.0002847545699308812,6.156782991633794e-05,0.00011711477814532747
0.000284746393555397,6.155723926645183e-05,0.00011711053738840741
0.0002847288759380136,6.154891081202597e-05,0.00011710842261874369
0.0002847043847303479,6.154496650199246e-05,0.00011711235940295796
0.00028467733228363875,6.15453670733105e-05,0.00011712281354833686
0.00028465359512435155,6.154839987419891e-05,0.00011713736722040397
0.00028463812105362647,6.155165909707952e-05,0.00011715238913601155
0.0002846304784441393,6.155348391276286e-05,0.0001171650032013818
0.00028462391565925926,6.155374704645303e-05,0.00011717475693591655
0.00028461231764244116,6.155296297673875e-05,0.00011718310643604088
0.000284596479729543,6.155146434747404e-05,0.00011719167937009934
0.00028457937284480443,6.154938272177329e-05,0.000117201220750888
0.0002845605409758218,6.154653621054683e-05,0.0001172109556924318
0.0002845390142600138,6.1542500152554e-05,0.00011721901152836237
0.0002845177291837231,6.153751542676364e-05,0.00011722466293156725
0.0002845023222984203,6.153258983121007e-05,0.00011722866411201828
0.0002844950279175688,6.152781340249202e-05,0.00011723052659616361
0.00028449034829498826,6.152233814502753e-05,0.00011722906462727807
0.0002844845818749255,6.151624604649259e-05,0.00011722445494194778
0.00028448405073228594,6.15102313852271e-05,0.00011721672050022843
0.00028449303797077304,6.150389231766771e-05,0.00011720570887081437
0.00028450745149776244,6.149638855106113e-05,0.00011719274124821247
0.0002845225550354406,6.148811547579842e-05,0.00011717996691387125
0.00028453695129951274,6.148016477914905e-05,0.0001171693252096265
0.0002845493649698303,6.147305375437058e-05,0.00011716157030549453
0.0002845566985773986,6.146646334106216e-05,0.00011715533646842052
0.00028455728069139337,6.145931454653161e-05,0.00011714781044205135
0.0002845512252504119,6.14506811270365e-05,0.0001171371335052514
0.00028453989881750685,6.14407441684551e-05,0.00011712381626576505
0.00028452675494328953,6.143023429680543e-05,0.00011710965263408505
0.00028451516243256365,6.142004101361083e-05,0.00011709687627879779
0.00028450524041347163,6.141140903301618e-05,0.00011708775811612631
0.000284493541594395,6.14053057403171e-05,0.00011708333481060638
0.0002844758526594031,6.140124104114543e-05,0.00011708183562088646
0.00028444948101833,6.139751879094501e-05,0.000117080601086704
0.00028441362479768057,6.139356983762186e-05,0.00011708085032982474
0.00028436987490924664,6.139050592679177e-05,0.00011708659262485405
0.0002843225897583981,6.138885364977952e-05,0.00011709954694427981
0.00028427809753322195,6.138756229301135e-05,0.00011711793365230915
0.00028424205456850486,6.13852701589766e-05,0.00011713816982678214
0.0002842150216054458,6.138170128531275e-05,0.00011715672306752334
0.0002841908334964627,6.137754308152154e-05,0.0001171721169749989
0.0002841624604134316,6.137346987045401e-05,0.00011718552202791515
0.0002841290519640421,6.136978995451001e-05,0.000117198966427399
0.0002840935754442017,6.136648537692971e-05,0.00011721373937007849
0.0002840565443710385,6.136310471252973e-05,0.0001172295672928318
0.00028401722308515,6.135894451283001e-05,0.00011724435759046957
0.000283978193082331,6.13543487674396e-05,0.00011725678887877732
0.00028394523185446403,6.135114546397472e-05,0.00011726795195639883
0.0002839225571359856,6.135050350966694e-05,0.00011727803599016545
0.00028390718215018975,6.135135248310115e-05,0.00011728556607521308
0.00028389160639005344,6.135166132210983e-05,0.00011728998062113165
0.00028387496073997335,6.135053578276974e-05,0.00011729115350478814
0.0002838647872650414,6.134825206423261e-05,0.00011728856410661077
0.00028386719809945593,6.13447202272878e-05,0.00011728240047120697
0.0002838811896032985,6.133969091397306e-05,0.00011727428155444393
0.0002839012480826353,6.133395966227546e-05,0.00011726662077225618
0.0002839208768391866,6.132871390613528e-05,0.0001172610625227609
0.000283934699893423,6.13243999590207e-05,0.00011725714155855678
0.00028394063295849025,6.132056663881573e-05,0.00011725249109228807
0.0002839391217300952,6.13162291432933e-05,0.0001172449847623272
0.00028393197842020745,6.131044080641936e-05,0.00011723450291351473
0.00028392291706580376,6.130274481785461e-05,0.00011722238303377868
0.000283915646833954,6.129350793482273e-05,0.00011721059264943233
0.00028391066875400943,6.128391842872996e-05,0.00011720149249272499
0.0002839045574911849,6.127519980042294e-05,0.00011719685419774938
0.00028389296825004644,6.126726281420862e-05,0.00011719611961245631
0.00028387397003759156,6.125933804292238e-05,0.00011719642481817015
0.0002838470498466443,6.125249323707144e-05,0.00011719716044121093
0.00028381189412870654,6.124910699449249e-05,0.0001172020199123285
0.0002837709737642213,6.125011329363416e-05,0.0001172138781864631
0.00028373063861945544,6.125421942425831e-05,0.00011723165462990573
0.0002836978442888654,6.125890294516474e-05,0.00011725192710732698
0.00028367453169165656,6.126228958730285e-05,0.00011727093333635949
0.00028365511052899536,6.126418679679518e-05,0.00011728663618972704
0.00028363191734672577,6.12650817835418e-05,0.00011729980737184337
0.00028360318927138237,6.126536105403292e-05,0.00011731255749565425
0.00028357339605759635,6.12652918966262e-05,0.00011732647948415406
0.0002835471767924318,6.126451684581323e-05,0.00011734165022107213
0.0002835256312545394,6.126248010643417e-05,0.00011735617181892132
0.00028350589971747286,6.125969617198804e-05,0.00011736805686263415
0.00028348443187116424,6.12572810716131e-05,0.00011737731892706687
0.0002834619021525292,6.125561263187377e-05,0.00011738433158672863
0.000283440727445926,6.12538413242375e-05,0.00011738834352078828
0.0002834179721206386,6.125088530239077e-05,0.00011738880040936504
0.00028339084039487723,6.124688505518678e-05,0.00011738573724817192
0.00028336624003845787,6.124267352829757e-05,0.00011737887400448605
0.00028335306227284624,6.123833352251611e-05,0.00011736810037237331
0.0002833522353107237,6.123314566808185e-05,0.0001173546222003722
0.0002833585460955892,6.122698342871867e-05,0.00011734075225639316
0.00028336558148425066,6.122074404305232e-05,0.00011732862495468704
0.0002833674652446797,6.12149272864442e-05,0.00011731863670248021
0.00028336053979637846,6.120883868697229e-05,0.00011730887870642953
0.00028334506012844883,6.120148876534302e-05,0.00011729689832733525
0.00028332362455449296,6.119275604726081e-05,0.00011728202967126931
0.00028330033811713217,6.118329724882165e-05,0.0001172653415607278
0.00028327936667458034,6.117402064880949e-05,0.00011724855584964619
0.00028326179008519175,6.116608139530189e-05,0.00011723385281303404
0.0002832443167203869,6.116063424940898e-05,0.00011722328565904346
0.00028322190662394134,6.11578532759145e-05,0.00011721716643889804
0.00028319264237897855,6.115613469537182e-05,0.00011721256491890674
0.00028315731163206496,6.115432313900333e-05,0.00011720744266291108
0.00028311519717428934,6.115371998776959e-05,0.00011720528402605677
0.0002830660326222398,6.115553340339443e-05,0.00011721023529206575
0.0002830136638242396,6.115898230632135e-05,0.00011722244537108263
0.0002829628598254648,6.116217484198628e-05,0.00011723924937538413
0.0002829157005171488,6.116395287235429e-05,0.00011725694243273846
0.00028287289236871997,6.116501330850476e-05,0.00011727268846467699
0.00028283433459509396,6.1166503262347e-05,0.00011728629431713153
0.00028279558252159847,6.116871217695007e-05,0.00011729954849299659
0.0002827528766689644,6.117121354322962e-05,0.00011731397869264329
0.00028271087827884747,6.117317350282088e-05,0.00011732972300561043
0.00028267458696797695,6.117379453686227e-05,0.00011734530991244694
0.00028264176361955364,6.117313767629447e-05,0.00011735866164451242
0.0002826077229778682,6.117222535515735e-05,0.0001173691272990658
0.00028257210136311883,6.117200381444553e-05,0.00011737725945044173
0.0002825382200372965,6.117239312822488e-05,0.0001173826129889075
0.00028250562332499747,6.117223125265391e-05,0.00011738420204332687
0.0002824709250503715,6.117047335831804e-05,0.00011738198018458135
0.00028243746311026327,6.116714172323703e-05,0.0001173759053569556
0.00028241381427482185,6.116244711295518e-05,0.0001173658451141337
0.00028240293278285574,6.115625881664033e-05,0.00011735283311174547
0.0002824000895220558,6.11490028948706e-05,0.00011733897020522992
0.0002823988646646794,6.114180420644156e-05,0.00011732638313016073
0.0002823940396838249,6.113553629881748e-05,0.00011731589331263901
0.00028238170645847517,6.113017703299274e-05,0.00011730609101090529
0.0002823607751794646,6.112480535284086e-05,0.0001172943720489251
0.00028233359072217637,6.11181667430093e-05,0.00011727932941449851
0.0002823050144657397,6.110959099723646e-05,0.00011726145769301198
0.00028227957058766856,6.109950628162337e-05,0.0001172422070252846
0.0002822587972753353,6.108919847453719e-05,0.00011722376743233942
0.0002822413464115158,6.108010928870885e-05,0.00011720870124224742
0.0002822250864041176,6.107270142749526e-05,0.00011719820939418173
0.0002822090296958654,6.106575890966682e-05,0.00011719030253474316
0.00028219083856265273,6.10584425703728e-05,0.00011718228201258477
0.0002821687837165791,6.105227146387736e-05,0.00011717552752307506
0.0002821459850191773,6.104923448536963e-05,0.00011717389971195321
0.00028212504208010165,6.104973006415184e-05,0.00011717906830083485
0.00028210553537063123,6.105254173209538e-05,0.00011718960279447668
0.0002820874774218855,6.105553843841667e-05,0.00011720223183586063
0.0002820725635025453,6.10576004362449e-05,0.00011721358199923515
0.0002820623004787656,6.105968227359319e-05,0.00011722251262531103
0.00028205325716326306,6.106291528998248e-05,0.00011723044374577054
0.00028204083144091785,6.106726708491824e-05,0.0001172390559939443
0.00028202790700753143,6.107198618167774e-05,0.0001172489086837563
0.0002820197822589044,6.107597015307462e-05,0.0001172592084572324
0.0002820157695684997,6.107838283449428e-05,0.00011726779975709204
0.00028201142437011623,6.107946180219856e-05,0.00011727317974827041
0.00028200555452926934,6.108025397505609e-05,0.00011727600451195826
0.0002820019050165953,6.108120440096129e-05,0.0001172766540232692
0.00028200210571145896,6.108161411398743e-05,0.00011727428132252581
0.0002820019617686787,6.108110440123338e-05,0.00011726859590713752
0.00028200105843918875,6.108035095968418e-05,0.00011725960113719246
0.0002820078072236472,6.107976756111809e-05,0.0001172469953856602
0.0002820274449555971,6.107860860461897e-05,0.00011723125623215931
0.0002820555017285788,6.107618975576694e-05,0.00011721425493627833
0.00028208529480888407,6.107338228248368e-05,0.00011719841554794502
0.0002821123532119021,6.10717199796898e-05,0.00011718520901053007
0.0002821337988007468,6.107198615624698e-05,0.00011717391893090725
0.0002821503982677417,6.10740149209889e-05,0.00011716206263060138
0.00028216550925286906,6.107686617711141e-05,0.00011714753215108285
0.0002821793398552112,6.107919332653854e-05,0.00011713036259918834
0.0002821884295270221,6.108049605754842e-05,0.00011711245392754083
0.000282191344971256,6.108186738480482e-05,0.00011709620819732534
0.00028219063342102666,6.108474118117393e-05,0.0001170836886724619
0.00028218952606311653,6.108961396124917e-05,0.00011707591397875874
0.00028218941917932674,6.109553352738519e-05,0.00011707166133810981
0.0002821870795375131,6.110102012531633e-05,0.00011706793251168492
0.0002821790296798383,6.110615203028736e-05,0.000117064168609974
0.00028216816185320327,6.111245713138326e-05,0.00011706391798934677
0.00028215789570786595,6.112095141288716e-05,0.00011707030637935529
0.0002821484474511482,6.113125689147091e-05,0.00011708302034887676
0.00028214032649465917,6.114188505431319e-05,0.00011709917176339788
0.000282135572055213,6.115154387834703e-05,0.00011711477783003154
0.00028213610425043375,6.116053356172275e-05,0.00011712754271808433
0.0002821394431637408,6.11699619028749e-05,0.0001171384710769495
0.00028214064843295463,6.118027249952027e-05,0.00011714946926131921
0.0002821407327437881,6.119112829020647e-05,0.00011716143687162022
0.00028214488413943784,6.12017306852801e-05,0.00011717412254356027
0.0002821534956193008,6.121106632894534e-05,0.00011718585188299971
0.00028216168612861205,6.121881909227339e-05,0.00011719500922733892
0.00028216713685184973,6.12259570454193e-05,0.00011720198022777913
0.00028217426296186913,6.123334118100711e-05,0.00011720754568665175
0.0002821872092890947,6.124032384252303e-05,0.00011721081871271307
0.0002822015250990728,6.124617167366482e-05,0.00011721073057807465
0.00028221205871966,6.12514802159578e-05,0.00011720711821974251
0.0002822231281713058,6.125661619363656e-05,0.00011719986530775022
0.00028224035030704635,6.126074392465383e-05,0.00011718925026484364
0.00028226532464251455,6.126303196967779e-05,0.00011717649146439505
0.0002822995298005292,6.12635499676706e-05,0.00011716335362103369
0.0002823416156920193,6.12629667724295e-05,0.00011715156334669764
0.00028238438891145295,6.126189330438335e-05,0.00011714156431229208
0.00028242300578187494,6.126044178121841e-05,0.00011713188129843313
0.00028246015311252255,6.125809531517008e-05,0.00011712011721183512
0.0002824970490751476,6.125426849695395e-05,0.00011710510320926004
0.00028253003971871065,6.124920670723455e-05,0.00011708816193383707
0.00028255716694181233,6.124392144805281e-05,0.00011707173762777732
0.00028258071990360493,6.123941825525697e-05,0.00011705796514531515
0.00028260401949601347,6.123623106406218e-05,0.00011704814987128547
0.0002826284539261411,6.12338785471962e-05,0.00011704184696692637
0.0002826516574980571,6.12312660000153e-05,0.00011703613667378569
0.0002826700602497828,6.122871806477239e-05,0.00011702930205475239
0.00028268439312774467,6.122836676570365e-05,0.00011702463714590885
0.00028269730379510815,6.123202338233089e-05,0.00011702625062337588
0.00028270964511420454,6.12397612990777e-05,0.00011703470590872856
0.0002827223007342999,6.125014539228026e-05,0.00011704765077738121
0.00028273770329639,6.126098028307488e-05,0.00011706135320679963
0.0002827585975877189,6.127064173341053e-05,0.000117072929522102
0.00028278372692443345,6.127901569315335e-05,0.00011708224262512595
0.00028280774531205984,6.128651676232437e-05,0.00011709084139550949
0.0002828298886427637,6.12931688225569e-05,0.00011710007140209404
0.00028285586423779346,6.129872469581587e-05,0.00011711027139883592
0.0002828890442641163,6.130265579117114e-05,0.00011712010287829096
0.00028292773602823503,6.130474918821935e-05,0.00011712779396845337
0.0002829697994640987,6.130579897601306e-05,0.0001171334283013763
0.00028301404867220304,6.130655451559105e-05,0.00011713759944856132
0.0002830574001330108,6.130650416054937e-05,0.00011713949830176806
0.0002830948842349013,6.13049580997252e-05,0.000117138482423426
0.000283125189337326,6.13022567332816e-05,0.00011713458359925645
0.00028315271523756547,6.129875337847794e-05,0.00011712735017834673
0.00028318254468113666,6.129393923082113e-05,0.00011711659606575597
0.0002832180352249239,6.128733344296657e-05,0.00011710330803459565
0.0002832617440212519,6.127941212732655e-05,0.00011708917419076109
0.0002833130766427118,6.12712724777328e-05,0.00011707604178758289
0.00028336519544925405,6.126395595621242e-05,0.00011706495262594922
0.0002834121031594371,6.125798169988202e-05,0.0001170550747656313
0.0002834561250001191,6.125294404267924e-05,0.00011704405662015775
0.00028349979760968554,6.124751710914482e-05,0.0001170301589011594
0.0002835403008261,6.124071236336009e-05,0.00011701395363000514
0.0002835753344757971,6.123308452515955e-05,0.00011699741350359836
0.0002836068550142312,6.122586341770961e-05,0.00011698261365326754
0.00028363819286620484,6.121994580114655e-05,0.00011697134158713284
0.0002836704774275115,6.121546058393254e-05,0.00011696423661782223
0.0002837017713773147,6.121117942694621e-05,0.00011695939822436793
0.000283728621317424,6.120603704371992e-05,0.0001169544757909582
0.00028375025306172347,6.120120190922587e-05,0.00011695124098382511
0.00028376841746483814,6.119866478885432e-05,0.00011695399524904175
0.00028378408479184074,6.119903030074775e-05,0.00011696440340943227
0.0002837980599022954,6.120128317727323e-05,0.00011698060521921583
0.00028381170313522574,6.120352974881971e-05,0.0001169990488283817
0.00028382541845209164,6.120436840296211e-05,0.0001170161752452386
0.00028383782388362154,6.120383999322864e-05,0.00011703057203893672
0.0002838467738167776,6.120282799045894e-05,0.00011704377190083841
0.0002838496423519739,6.120205645997606e-05,0.00011705807007845227
0.0002838463773657979,6.120144587690987e-05,0.00011707436213255048
0.00028384266763832605,6.120003811053388e-05,0.00011709151918693106
0.0002838440798712622,6.11974034682772e-05,0.00011710715908979042
0.0002838514371572071,6.119456626782974e-05,0.00011712008965733297
0.0002838625742825671,6.119245150338129e-05,0.00011713084203522346
0.0002838737860671848,6.119039861361492e-05,0.00011713904232453906
0.00028388051890419004,6.118728249767266e-05,0.00011714368487419039
0.0002838799716376545,6.118317293948722e-05,0.00011714488320109553
0.0002838743881801065,6.11786972347336e-05,0.00011714254672971497
0.00028386927087939125,6.117386530418665e-05,0.00011713628919320783
0.00028386942307326795,6.116807426981066e-05,0.00011712679207530043
0.00028387792608518123,6.116073780625517e-05,0.00011711554884102396
0.00028389484552936286,6.115207955565961e-05,0.00011710442552784072
0.000283914775682396,6.114304007458043e-05,0.00011709497196263657
0.00028393138393130256,6.113440319140588e-05,0.00011708704122959691
0.00028394483498743537,6.112631627904626e-05,0.00011707861313700135
0.00028395743372271957,6.111820006702441e-05,0.00011706761428179035
0.00028396707100473165,6.110910089290964e-05,0.00011705386363952757
0.00028397129113381014,6.109875814553491e-05,0.00011703889214541814
0.0002839723617153936,6.108793539332126e-05,0.0001170246859773764
0.0002839741835017572,6.107770437497664e-05,0.00011701320628721188
0.00028397817529009483,6.106875573084335e-05,0.000117005735149863
0.0002839845507221258,6.106053620612785e-05,0.00011700123496914947
0.00028399182677975494,6.105199478257886e-05,0.00011699720669235868
0.0002839957423261113,6.104376251147963e-05,0.00011699412559518956
0.00028399615980200747,6.103744185591075e-05,0.00011699557985512218
0.00028400007740406506,6.1033315307340306e-05,0.000117003453185547
0.00028401246249084184,6.1030322375287784e-05,0.00011701646557099959
0.000284031389060144,6.102720761462837e-05,0.00011703180912366371
0.00028405211470626177,6.1022939049558436e-05,0.00011704608700096656
0.00028407106553164174,6.101699500350842e-05,0.00011705740019006886
0.00028408700590980957,6.100982978500487e-05,0.00011706711340014963
0.0002840983545416292,6.100238139379484e-05,0.0001170777505776078
0.0002841039404951063,6.099492499497315e-05,0.00011709055958516136
0.0002841079413481314,6.098665021664203e-05,0.00011710489593227132
0.00028411642302755293,6.0976966487367216e-05,0.00011711834589791963
0.0002841311292979881,6.096675428813444e-05,0.0001171289684424024
0.00028414998158446695,6.095718554865045e-05,0.00011713704635330395
0.00028416972069882497,6.094818621502445e-05,0.00011714281796365393
0.00028418703263099365,6.0938650414835446e-05,0.0001171454721853605
0.00028419834606246644,6.092800601381917e-05,0.00011714483743578976
0.00028420301230327923,6.091686552116549e-05,0.00011714098878961131
0.0002842062107232245,6.090585475980408e-05,0.00011713353659366556
0.0002842144641546687,6.0894890420904276e-05,0.00011712260492172119
0.0002842317348243089,6.088330491929443e-05,0.00011710943932127763
0.00028425839896478836,6.0870452111915185e-05,0.00011709613473168203
0.00028428954149716657,6.0856539037958896e-05,0.00011708479219240406
0.0002843181108367961,6.084222002554658e-05,0.0001170759323659101
0.00028434274588688436,6.0827669919386856e-05,0.00011706785057452898
0.0002843678070374434,6.081252171401745e-05,0.0001170578505566726
0.0002843957638581485,6.0796116263590564e-05,0.00011704454918628956
0.00028442532645447135,6.0778347624228014e-05,0.00011702914076177803
0.00028445307062651684,6.07606147626841e-05,0.00011701429506192169
0.00028447440576567415,6.074512961617798e-05,0.00011700283384084516
0.00028448755249281874,6.073334181080996e-05,0.0001169965556761919
0.00028449611123314885,6.072485411996367e-05,0.00011699469603424939
0.00028450453868275843,6.071736212779757e-05,0.0001169939636346293
0.00028451101904582626,6.0709094499339504e-05,0.00011699290530374989
0.00028451282635199416,6.070072745309809e-05,0.00011699464804380992
0.00028451552071963565,6.069330082592091e-05,0.00011700229835394694
0.0002845253237888158,6.068665928003237e-05,0.00011701565007464933
0.00028454147539094604,6.068001592568683e-05,0.0001170323810553893
0.00028455981318395625,6.067232241973134e-05,0.00011704927229866255
0.00028457698434113674,6.0663109471268833e-05,0.00011706386011626174
0.00028459193305268866,6.065303700104214e-05,0.0001170763021028547
0.0002846036889225766,6.064285807580091e-05,0.00011708868723648385
0.00028461077742264224,6.063242693192022e-05,0.00011710262416884117
0.0002846159567561917,6.062098010969907e-05,0.0001171179429944515
0.00028462543523280443,6.060841895579462e-05,0.00011713268300488915
0.00028464182204332054,6.059600598460846e-05,0.00011714492837797273
0.0002846626951988023,6.058523085710422e-05,0.00011715479260280885
0.0002846843002407257,6.057640410234628e-05,0.00011716291566963274
0.00028470414090006786,6.056828121897766e-05,0.00011716846236590176
0.0002847198389994825,6.055924381831462e-05,0.00011717038331190487
0.00028472956460254815,6.054878382555323e-05,0.00011716848288943295
0.0002847362134259352,6.053714231410507e-05,0.00011716272830733884
0.0002847450899686698,6.0524192195617343e-05,0.00011715353178291966
0.00028475793581187375,6.050974833586343e-05,0.00011714219979313323
0.00028477410155125873,6.049453846160134e-05,0.0001171305357415349
0.0002847946034703679,6.047973875116401e-05,0.00011712009002038327
0.0002848196432235271,6.046602300125575e-05,0.00011711103146888957
0.0002848445863664065,6.045356594079719e-05,0.00011710187585472184
0.0002848665816757665,6.044231207649567e-05,0.00011709050063823473
0.0002848894559801919,6.043197093747616e-05,0.00011707572281764568
0.00028491573019490737,6.04218181242061e-05,0.0001170583155583383
0.00028494188276644743,6.0410937713818594e-05,0.00011704049933348021
0.0002849623190589785,6.039943156380161e-05,0.00011702489020815767
0.0002849745972360951,6.038861672748036e-05,0.00011701344697616764
0.00028498166401696393,6.03791300929712e-05,0.00011700619687060941
0.00028498829871227135,6.0369889125587165e-05,0.00011700027344735399
0.0002849944209471725,6.036019642434408e-05,0.0001169933960359243
0.00028499727545898434,6.0351386226774845e-05,0.00011698816238555118
0.00028500016844325467,6.034484625661492e-05,0.0001169885159354309
0.00028500897605756784,6.034040241774764e-05,0.0001169954205944133
0.0002850240285210241,6.033675947163579e-05,0.00011700726536384186
0.0002850416187422077,6.033244380344288e-05,0.00011702108834496249
0.00028505850168986904,6.03271863838457e-05,0.00011703362103980045
0.0002850737376292031,6.0322284763303e-05,0.00011704343966910171
0.00028508715176884505,6.0319270300634214e-05,0.00011705205783764993
0.00028509714675897753,6.031859055202465e-05,0.00011706154537803181
0.00028510511442201983,6.0319276790360824e-05,0.00011707241413300974
0.0002851176576778,6.031960090062606e-05,0.00011708334314463909
0.00028513883676504516,6.031885359508761e-05,0.0001170924157943536
0.00028516739868201125,6.031824676639737e-05,0.0001170994660037515
0.00028520212156248157,6.0319205393511745e-05,0.0001171055625853307
0.00028524241497190157,6.032137591200145e-05,0.00011711015878401924
0.00028528331112928716,6.032338402930128e-05,0.0001171118513762749
0.00028532129877789587,6.0325083456117054e-05,0.0001171105924955875
0.00028536162971606714,6.03272372142158e-05,0.0001171063343703676
0.0002854086772096081,6.0329822395930284e-05,0.0001170985673432066
0.0002854602181388179,6.0331985560819535e-05,0.00011708799464627238
0.00028551351153728,6.033273072196186e-05,0.0001170763696601412
0.00028556959387408576,6.033139411143338e-05,0.00011706534339938914
0.0002856301810335132,6.032782287051213e-05,0.0001170555998341875
0.00028569086420475074,6.032230626141513e-05,0.00011704636375611043
0.00028574706567897554,6.0315346740839215e-05,0.00011703581450820744
0.0002858027195861489,6.030719580769604e-05,0.00011702231376076919
0.0002858619879081753,6.029763278558272e-05,0.0001170057958465457
0.0002859221956076395,6.028687661700834e-05,0.00011698804521312094
0.0002859777010542342,6.027639526325242e-05,0.00011697168756454262
0.00028602535418815756,6.0267963668277e-05,0.00011695898696094412
0.0002860673451726649,6.0262286700091734e-05,0.00011695070426843461
0.0002861086759229585,6.0258333015028346e-05,0.00011694504070657864
0.0002861509199680939,6.025440433621555e-05,0.00011693940012662869
0.0002861912117073264,6.025032348715849e-05,0.00011693461560634787
0.00028623028740936053,6.024715936735985e-05,0.00011693442268061389
0.0002862734363488115,6.024546535210491e-05,0.0001169409163569382
0.0002863219241983261,6.0245012540060485e-05,0.00011695312403374655
0.0002863721770894153,6.0245037196382086e-05,0.00011696827312352908
0.00028642057834486116,6.024436641326212e-05,0.00011698287059487818
0.00028646486669478826,6.024247152727507e-05,0.00011699472077105928
0.00028650264231074463,6.023988794825152e-05,0.00011700464453271306
0.0002865322816688955,6.023700616801005e-05,0.00011701485230733501
0.000286555200956253,6.023371964602785e-05,0.00011702679130650411
0.00028657331942835587,6.022973546805042e-05,0.00011704033151265782
0.00028658840550007384,6.0224649918573736e-05,0.0001170532950905971
0.00028660413624274276,6.021887362183569e-05,0.0001170636973353338
0.0002866252697452467,6.0213765729545913e-05,0.00011707198860477005
0.00028665428317688934,6.0209824022913495e-05,0.00011707842681935096
0.0002866864805231484,6.020587598422551e-05,0.00011708210512092156
0.00028671572730944997,6.02009757053129e-05,0.00011708313564322498
0.00028674444918706105,6.0195482244699044e-05,0.00011708171685857178
0.0002867774288058283,6.0189456502238696e-05,0.00011707715962081267
0.00028681426330103395,6.018225895102072e-05,0.00011706947338512456
0.0002868527601841758,6.0173966150481065e-05,0.00011705997256086769
0.0002868935680355344,6.01655348386942e-05,0.00011705033731507218
0.00028693905213007874,6.015783499328063e-05,0.0001170417317861553
0.00028698631447791054,6.015126208305129e-05,0.00011703409561533057
0.00028703036832166545,6.014583911403689e-05,0.00011702599179335191
0.00028707369247713016,6.014114567541479e-05,0.00011701539281063786
0.00028712072873614194,6.0136198627761125e-05,0.00011700137750717766
0.00028716970029492674,6.013018165742817e-05,0.00011698524707638929
0.00028721480571633544,6.0123624631467325e-05,0.00011696960597835475
0.0002872523904787785,6.011797115494383e-05,0.00011695701796805918
0.00028728440892773077,6.0114188747717814e-05,0.00011694896773806037
0.00028731601695499635,6.01119980647495e-05,0.00011694477187012089
0.0002873503826443487,6.0110103696309046e-05,0.00011694162672167742
0.00028738424187874437,6.010818780791582e-05,0.00011693865161971067
0.0002874124873643293,6.010781036603175e-05,0.00011693937059281571
0.00028743676055130473,6.011018602715218e-05,0.00011694699471509545
0.0002874638759808094,6.0114695194356286e-05,0.00011696105856393448
0.0002874998624946909,6.011960365875774e-05,0.00011697862300066931
0.00028754530757889334,6.0123310348472954e-05,0.00011699591684683793
0.0002875943868212384,6.012533639437334e-05,0.00011701049485767387
0.00028763913869969763,6.012643544472001e-05,0.00011702278154250292
0.00028767513516581613,6.0127700486521885e-05,0.00011703479963751105
0.0002877032050176302,6.0129708435627e-05,0.00011704825546989336
0.00028772542700124454,6.013213367363006e-05,0.00011706357022460718
0.00028774405588375204,6.0133995265070155e-05,0.00011707916191744287
0.0002877629853579212,6.013522674823844e-05,0.00011709281532937431
0.0002877866773442425,6.01373468307813e-05,0.00011710414162891959
0.00028781784957617205,6.014157334681495e-05,0.00011711353827260092
0.0002878537020621276,6.0147251129406284e-05,0.00011712041392922984
0.00028788808795569425,6.015260668305595e-05,0.00011712454347753447
0.0002879204006361664,6.015660020899503e-05,0.00011712619047387649
0.00028795491680357066,6.015913327265549e-05,0.00011712480646767348
0.0002879931194687898,6.01601513278708e-05,0.00011712015054478857
0.0002880334080261984,6.0160109486578766e-05,0.00011711336398621628
0.00028807595136090417,6.016015179288022e-05,0.00011710614160383407
0.0002881237223923696,6.0161212894348596e-05,0.00011709993228614807
0.0002881756697389564,6.016364626642399e-05,0.00011709526811231977
0.00028822662046433403,6.0167305196376785e-05,0.00011709119321279056
0.0002882769092511135,6.017152291508573e-05,0.00011708570827293804
0.0002883309333839009,6.0175135673528536e-05,0.00011707727404460938
0.00028838980149285733,6.017732101641922e-05,0.00011706618630806489
0.0002884513834090129,6.017863603031465e-05,0.00011705444387294451
0.0002885127948389528,6.018066681121159e-05,0.0001170447311113596
0.0002885699620205588,6.0185027626558905e-05,0.00011703948067661218
0.000288618743527415,6.019212312340861e-05,0.00011703943003914285
0.00028865912525210337,6.02003646807091e-05,0.00011704184141436034
0.00028869303699090813,6.020876477261783e-05,0.00011704395463779064
0.0002887198555854878,6.0219103392009364e-05,0.00011704820638635165
0.0002887404453209061,6.023311282140897e-05,0.0001170586562853491
0.00028876163873291303,6.025010955453857e-05,0.00011707581689603274
0.0002887914486928814,6.026787437989233e-05,0.00011709715937459166
0.00028883189127809606,6.0284462915178894e-05,0.00011711923837980147
0.00028887785939765904,6.029942475040544e-05,0.00011713913388902928
0.0002889214168397871,6.031339685481638e-05,0.00011715585647531596
0.00028895702363859917,6.0327178800318376e-05,0.0001171709309671622
0.0002889837009519856,6.034135826690847e-05,0.00011718667803888967
0.0002890031383679403,6.035601162430192e-05,0.00011720428179366441
0.0002890183239460136,6.037021913903633e-05,0.00011722278586291018
0.0002890337066156143,6.038323345897278e-05,0.00011723987272544772
0.0002890537437258061,6.039610267223093e-05,0.00011725469239578446
0.0002890812312601293,6.041022436133604e-05,0.00011726807903295056
0.00028911481609820105,6.0425151734143945e-05,0.00011727950589329516
0.00028914822577676277,6.043963733912766e-05,0.00011728771893260943
0.00028917789389197314,6.0453880642659536e-05,0.00011729284224828891
0.00028920710678924773,6.04687761667916e-05,0.00011729478755574354
0.00028923890982528226,6.0484285539263545e-05,0.00011729329571965742
0.00028927239764658697,6.04993991473898e-05,0.00011728937907149242
0.00028930586525864697,6.051306170412529e-05,0.00011728477363043762
0.0002893391341692926,6.052520199474472e-05,0.00011728136002348218
0.0002893713375255953,6.053628656833089e-05,0.00011728022233071897
0.0002893985275578547,6.0546331566433414e-05,0.00011728028846068607
0.000289417295088424,6.0554958278862596e-05,0.0001172788391761328
0.0002894293080480376,6.056194704998291e-05,0.00011727391716844749
0.00028943969679077076,6.05671822813467e-05,0.0001172656843853556
0.00028945234805954987,6.0570683171371245e-05,0.00011725573068467916
0.0002894674153718844,6.057341435766968e-05,0.00011724643493224919
0.0002894807146465386,6.0577258590637435e-05,0.00011724045941632837
0.00028948674574259413,6.058359687899977e-05,0.0001172392577479078
0.0002894844129788163,6.0591795855317774e-05,0.00011724119937363732
0.00028947638868346865,6.060022349645846e-05,0.00011724348767864297
0.0002894624992412221,6.0609079974763874e-05,0.00011724714194191227
0.0002894417574885677,6.0619980845616116e-05,0.00011725609468865937
0.0002894197517984343,6.063336146391219e-05,0.00011727207762983924
0.00028940506609885107,6.064798317305636e-05,0.00011729341393341267
0.0002894010098934784,6.066206105487758e-05,0.00011731686506397676
0.000289403534599462,6.067444958317496e-05,0.00011733902401278481
0.0002894050950025779,6.068523679293574e-05,0.00011735804157207817
0.00028939957222285056,6.069539806308328e-05,0.00011737495311285094
0.00028938446629306477,6.070613597032901e-05,0.0001173921057546758
0.00028936068745304036,6.071826790919303e-05,0.00011741107405795274
0.0002893317428313564,6.073148081584644e-05,0.00011743149951046577
0.00028930304377101213,6.074430946938926e-05,0.00011745097740369161
0.0002892795122265831,6.07558880145561e-05,0.00011746799289762746
0.00028926427049414766,6.076699115676553e-05,0.00011748363111569265
0.00028925842662767115,6.077815053342786e-05,0.00011749828203142465
0.0002892584453214328,6.07885657374716e-05,0.00011751046955117079
0.00028925779216522677,6.079768674663266e-05,0.00011751934015868712
0.00028925683253971257,6.0805973905638066e-05,0.00011752488659504464
0.00028926404909429727,6.081366591341096e-05,0.00011752680508729933
0.00028928329236452326,6.082021299350904e-05,0.0001175252112461504
0.00028930963780774566,6.0825470210940755e-05,0.00011752177052574823
0.0002893370298535771,6.0830452187064775e-05,0.00011751893171218804
0.00028936222064889573,6.083640416006487e-05,0.0001175182892721961
0.00028938302029068476,6.084377238625083e-05,0.00011751937608742594
0.0002893966570843043,6.085205438602965e-05,0.00011751987458378709
0.0002894028840867527,6.0860315481836764e-05,0.00011751746904505023
0.0002894064511009152,6.086775206350539e-05,0.00011751149467519258
0.0002894124077164246,6.0873638761883425e-05,0.00011750304892263274
0.00028942164180265046,6.087774331139449e-05,0.00011749433906106935
0.0002894304497355829,6.088110031147921e-05,0.00011748812676430684
0.00028943305942913877,6.088514739931708e-05,0.00011748656305648357
0.0002894274392257501,6.0889865415347544e-05,0.00011748930955665493
0.00028941676439040603,6.089445803186122e-05,0.00011749326384133483
0.000289402745673725,6.089993927688982e-05,0.00011749718505656346
0.000289383612227706,6.09084614064426e-05,0.00011750455607505255
0.00028936175758118726,6.092062621795977e-05,0.00011751856270822666
0.0002893452109176035,6.093508178247232e-05,0.00011753858605470635
0.0002893388589674088,6.094992346390746e-05,0.00011756185762096924
0.00028933939644479426,6.096371870245803e-05,0.00011758510137429682
0.00028933927372753023,6.097575501262466e-05,0.00011760595644941062
0.0002893323269373222,6.0986274314785996e-05,0.00011762449654901157
0.0002893170866797587,6.0996122878520364e-05,0.00011764261137814917
0.0002892973514487808,6.1005761739661815e-05,0.00011766198517436442
0.0002892780141599155,6.101478749270007e-05,0.00011768283303178216
0.00028925969038996394,6.1022358991253546e-05,0.00011770358233991401
0.0002892390531910593,6.102833539562325e-05,0.00011772216390355845
0.0002892155730062196,6.103390957952176e-05,0.00011773812589201992
0.00028919433719567936,6.104040860011377e-05,0.0001177520579429373
0.0002891791142764119,6.104763344082311e-05,0.00011776340883552848
0.00028916517543568966,6.105432185835808e-05,0.00011777142309972224
0.00028914840000921534,6.10602140999656e-05,0.00011777639892629374
0.0002891361278927073,6.106616583692197e-05,0.0001177782044140488
0.0002891352599140211,6.107224629880197e-05,0.00011777642978913296
0.00028914260471879705,6.107746440386244e-05,0.00011777212018679976
0.00028915177280636623,6.108142440442547e-05,0.00011776737595713107
0.0002891591871347634,6.108482087336585e-05,0.00011776391945392396
0.00028916354125571223,6.108817656302198e-05,0.00011776194468765376
0.00028916226830515347,6.109116439935539e-05,0.00011775974115194294
0.0002891537225584279,6.109298927316468e-05,0.00011775493905737041
0.0002891418966768547,6.109307249858684e-05,0.00011774644112817504
0.0002891322735637328,6.109173896716367e-05,0.00011773501083079825
0.0002891262043863243,6.109025071016823e-05,0.00011772252502758468
0.00028912047901357145,6.109031417338906e-05,0.00011771155351991847
0.0002891092743338599,6.109344036919278e-05,0.0001177046400002912
0.00028908984727613225,6.109976696010344e-05,0.00011770239834446373
0.00028906584617729525,6.110729328655521e-05,0.00011770178673303537
0.00028904074983644853,6.111442610619588e-05,0.00011770029459163524
0.00028901197846587716,6.112244395656695e-05,0.00011770111266037623
0.0002889773983816962,6.113312181662516e-05,0.00011770864708036191
0.000288940853737643,6.114637647949841e-05,0.00011772339602475244
0.0002889072690483009,6.116070832252862e-05,0.00011774286949764409
0.0002888800070805438,6.117451207651309e-05,0.00011776335302084702
0.0002888610523902955,6.118748965755277e-05,0.00011778179731805957
0.0002888476362817843,6.120044177571158e-05,0.00011779779786978308
0.00028883287285445656,6.121387310699587e-05,0.00011781293037650816
0.0002888142684496365,6.122771096969524e-05,0.00011782864547417339
0.0002887958173686395,6.124174660104216e-05,0.0001178454007837535
0.0002887791926029197,6.125559951695668e-05,0.0001178623310126514
0.0002887611586332063,6.126844867895758e-05,0.00011787742770455608
0.00028874045739914406,6.127997513056026e-05,0.00011788957220937115
0.00028872147886649943,6.129108781178572e-05,0.00011789944738299995
0.000288709073237405,6.13021099476238e-05,0.00011790692617194893
0.000288700751802243,6.131221264462913e-05,0.00011791105549674163
0.00028869157553907266,6.132126089589903e-05,0.00011791211357459952
0.000288685495206036,6.133001966946525e-05,0.00011791039384298885
0.0002886894183593936,6.133862984631329e-05,0.00011790540782723478
0.0002887020236686113,6.134629735047246e-05,0.00011789747211401815
0.00028871699176430805,6.135274608460099e-05,0.00011788836905172858
0.0002887305498566478,6.135873000229126e-05,0.00011788019442660714
0.0002887422535143579,6.13647840749683e-05,0.0001178738042331987
0.00028875067970182087,6.137073734857874e-05,0.0001178679591116847
0.0002887537205078083,6.137638168339964e-05,0.0001178601769902808
0.0002887541697743929,6.138171505908333e-05,0.00011784880641822945
0.0002887576281272364,6.138647577357353e-05,0.00011783402540975385
0.0002887662655534262,6.139001532259087e-05,0.00011781745354453979
0.0002887788783752506,6.139242887251325e-05,0.00011780161845260096
0.00028879263466452434,6.139514490774907e-05,0.00011778914321099931
0.0002888047426011105,6.139925462308261e-05,0.0001177814067018317
0.00028881300939344215,6.140381993383793e-05,0.00011777711413606205
0.0002888149105114934,6.140783245763454e-05,0.00011777347400724795
0.00028880975651579354,6.141296000537061e-05,0.00011777082287869623
0.0002887995157552579,6.142171489787956e-05,0.00011777299643658939
0.000288786680149525,6.143474640475306e-05,0.00011778225405589674
0.0002887743603800348,6.145076767059154e-05,0.00011779722314719928
0.0002887670596396957,6.146742414239429e-05,0.00011781440587814695
0.00028876834537883085,6.148294244991233e-05,0.00011783017007244457
0.00028877647504113287,6.149731875287319e-05,0.00011784308886646734
0.00028878398039983584,6.15113178077653e-05,0.00011785434491138103
0.0002887863218561201,6.152531352858813e-05,0.00011786571917827353
0.00028878699699089855,6.153920958674482e-05,0.0001178781928442228
0.00028878908242937167,6.155244186291308e-05,0.00011789145152237559
0.0002887903901445538,6.156430095425645e-05,0.00011790357068501988
0.0002887892100711263,6.157498021169006e-05,0.00011791296343443575
0.00028878910492559064,6.158575831636883e-05,0.00011792031439502578
0.0002887957978205011,6.159732300957787e-05,0.0001179261880027565
0.00028880918075959534,6.16086396983374e-05,0.00011792956956018163
0.0002888237512324742,6.161873254042302e-05,0.00011792995507310993
0.00028884009154571145,6.162833182436619e-05,0.00011792746539375489
0.000288865147351425,6.163808087963405e-05,0.00011792182439801596
0.0002888993557456829,6.164716364938713e-05,0.0001179134766460912
0.0002889361943248899,6.165498638861147e-05,0.00011790421656401703
0.0002889711470139136,6.166239877295839e-05,0.00011789610233340623
0.0002890027292340882,6.167050459942068e-05,0.00011789034796177502
0.0002890288645440242,6.167969106498366e-05,0.00011788642568676717
0.0002890486638747804,6.168987534801899e-05,0.00011788218577034014
0.0002890635651829957,6.170052148729814e-05,0.0001178754999105738
0.0002890732930676691,6.171048613041446e-05,0.00011786602715762172
0.00028907746825527407,6.171878958900997e-05,0.00011785524368049297
