9.228339009257208e-11,3.0761131507117756e-11,3.9150528271266964e-10,1.5240741248860267e-09
3.962357846836349e-10,2.4338486964795795e-10,1.8620769423712858e-09,7.926735448704964e-09
9.106852196108653e-10,9.166760764757715e-10,4.390391381473247e-09,2.078212197520167e-08
1.6235441461679858e-09,2.3246158432576315e-09,7.57169184537024e-09,3.9500358496936335e-08
2.5624127199917143e-09,4.6825170731790926e-09,1.1611605306145914e-08,6.359574384797486e-08
3.771293730770808e-09,8.194790292588309e-09,1.6632317309388417e-08,9.282314537440288e-08
5.429977321122378e-09,1.3017139189737377e-08,2.227697277668698e-08,1.2732172099900916e-07
7.990367481640965e-09,1.908336705371735e-08,2.856865337248001e-08,1.6739051811577743e-07
1.1946898689498764e-08,2.599707755869547e-08,3.559043977457977e-08,2.1296808310111537e-07
1.7335176291868816e-08,3.330957332169593e-08,4.295690007581725e-08,2.6361913775047354e-07
2.3590356950738903e-08,4.0871447099037464e-08,5.035914736402488e-08,3.1895075118303175e-07
3.0283946105515355e-08,4.869313351931309e-08,5.786272418223829e-08,3.789286021928663e-07
3.7760319690448876e-08,5.6962244172739025e-08,6.577569315771448e-08,4.438997326383332e-07
4.664746449721492e-08,6.617518652536486e-08,7.4370480036017e-08,5.146007323524446e-07
5.734748477772457e-08,7.654173400744085e-08,8.352817939125645e-08,5.918794406325899e-07
6.989309391296366e-08,8.761587787952301e-08,9.306180793873187e-08,6.761582143996248e-07
8.383734612453838e-08,9.897817941875725e-08,1.0320314885935583e-07,7.671816449624013e-07
9.844479743503432e-08,1.1060469420103601e-07,1.1415833600371793e-07,8.644270054670627e-07
1.1325256502230463e-07,1.2267137313642787e-07,1.2586771203270962e-07,9.676007789026014e-07
1.2838751590455004e-07,1.3586125376873544e-07,1.3850577682997915e-07,1.0767352207137865e-06
1.4420148846938599e-07,1.5101203508829124e-07,1.5271781927223926e-07,1.1919400608886562e-06
1.609041136858409e-07,1.6810221078875104e-07,1.6919952746305614e-07,1.313139842567276e-06
1.7840857580179325e-07,1.862308263933659e-07,1.8811432801664842e-07,1.440036924121168e-06
1.9630613992193227e-07,2.045679726756739e-07,2.0899570845717044e-07,1.5724654305281976e-06
2.1428282131155992e-07,2.228874342944832e-07,2.3120689478647348e-07,1.710721664605627e-06
2.3239280455081109e-07,2.4130773572831305e-07,2.5443881243377814e-07,1.8553542144015648e-06
2.5075587904043225e-07,2.6010415294831774e-07,2.7869869436749223e-07,2.0067134537655337e-06
2.6937035358952015e-07,2.793937503850004e-07,3.0387978085536197e-07,2.164863038644711e-06
2.8820218478149815e-07,2.9895066310490994e-07,3.2953612873706526e-07,2.329594201596921e-06
3.072369245599296e-07,3.1853028983531543e-07,3.5530550021449723e-07,2.500416234120851e-06
3.264327425818499e-07,3.380685954123899e-07,3.812845461940207e-07,2.676942537677246e-06
3.4568174584057775e-07,3.5757224306860784e-07,4.075948303593514e-07,2.8593017072625678e-06
3.6487481161775753e-07,3.770268384362672e-07,4.341570326932098e-07,3.0478733063939783e-06
3.839828486009226e-07,3.9648386385235416e-07,4.6118758216289834e-07,3.2425246559391953e-06
4.0307219680219986e-07,4.1612573300844035e-07,4.893032580161546e-07,3.4423225549216294e-06
4.2223392811244225e-07,4.36293293801722e-07,5.189139294735677e-07,3.6460545826064556e-06
4.4153075051251447e-07,4.575549507730428e-07,5.499101859398253e-07,3.852822772436274e-06
4.6100508881621306e-07,4.80461655446052e-07,5.821319423590925e-07,4.062473010710854e-06
4.806787098897285e-07,5.049439049719576e-07,6.156817186484545e-07,4.275851451237115e-06
5.005395228085928e-07,5.303583924654783e-07,6.506310440467047e-07,4.494114782080891e-06
5.205007211680546e-07,5.564086553542266e-07,6.86804463790412e-07,4.717384565059935e-06
5.404595964042629e-07,5.831775483676872e-07,7.23967131238517e-07,4.944594606791678e-06
5.60466058141942e-07,6.104108100580048e-07,7.620657592115695e-07,5.174859506315559e-06
5.806396992786104e-07,6.378831981481443e-07,8.012348259438186e-07,5.408382465118086e-06
6.009703469373344e-07,6.658395593914916e-07,8.416015543677732e-07,5.645879698104018e-06
6.21383496943543e-07,6.945856129475672e-07,8.831248346045483e-07,5.887591612777656e-06
6.419209482658431e-07,7.242750887678106e-07,9.256914360154715e-07,6.13306609940637e-06
6.627794369142117e-07,7.548095593511483e-07,9.693028752521616e-07,6.3815992281620986e-06
6.84177485723757e-07,7.859075016666922e-07,1.0140128797037088e-06,6.632577152036333e-06
7.061996467187411e-07,8.177373786783715e-07,1.0597151591042728e-06,6.885574784441218e-06
7.287956765513054e-07,8.507215079949515e-07,1.1060272175728728e-06,7.14063206456692e-06
7.519149023536439e-07,8.845405592861123e-07,1.1525796761223782e-06,7.398610733540228e-06
7.755444183657538e-07,9.186125570588398e-07,1.1996175803101493e-06,7.66092095373322e-06
7.996014350621065e-07,9.528621401322977e-07,1.2477222210352594e-06,7.92850180043433e-06
8.240042460556488e-07,9.87202231663746e-07,1.2969200251854726e-06,8.201247111174803e-06
8.488340439074827e-07,1.021448657621355e-06,1.346822720629532e-06,8.478544674026279e-06
8.74064366412413e-07,1.055543334819483e-06,1.3973358821145194e-06,8.75996634348722e-06
8.995655589715807e-07,1.0895361977218686e-06,1.4485828524176385e-06,9.045359657392014e-06
9.25696398579308e-07,1.1236019376938732e-06,1.5004095761787261e-06,9.334652771186211e-06
9.531741707623856e-07,1.1577272034062305e-06,1.5523305724779907e-06,9.627868436221543e-06
9.824609011741858e-07,1.191836601387866e-06,1.6039265844710347e-06,9.925221309422718e-06
1.0136341474383957e-06,1.2261842235409788e-06,1.6551939129547635e-06,1.022694129169027e-05
1.0465024260761118e-06,1.260962271093994e-06,1.706611678498562e-06,1.053353992514301e-05
1.0807010981964668e-06,1.2959330082413466e-06,1.7589776851526655e-06,1.0845774643499481e-05
1.1156931852378728e-06,1.3308803250791564e-06,1.812794272977138e-06,1.1163320545445433e-05
1.1509788024704773e-06,1.3660297764594113e-06,1.8675862249445651e-06,1.148479629572252e-05
1.186572800325685e-06,1.4016652048639192e-06,1.9227930251101618e-06,1.1809107905558549e-05
1.2228670938665197e-06,1.4378120275148102e-06,1.979071031829398e-06,1.2135967968735866e-05
1.2599840714191931e-06,1.4744048971113409e-06,2.037492061279003e-06,1.2466107766134818e-05
1.2975984165767007e-06,1.5113465940197628e-06,2.098630389654196e-06,1.2800794788748725e-05
1.3352467260517258e-06,1.5484678908434132e-06,2.162850701783077e-06,1.3140388512412418e-05
1.3726286323246583e-06,1.5855856598244899e-06,2.2306007677921137e-06,1.3484006313861465e-05
1.4096764917627847e-06,1.6225625081737301e-06,2.302253317392432e-06,1.3830764033502457e-05
1.44648820946416e-06,1.659316896207452e-06,2.3774794589293967e-06,1.4180340516304842e-05
1.483169387969879e-06,1.695906191792346e-06,2.4548834929278486e-06,1.4532656886205948e-05
1.5197162175644654e-06,1.7324821810387426e-06,2.5329402238694038e-06,1.4887595160095377e-05
1.5562274509828757e-06,1.7690960046512259e-06,2.6111945638571676e-06,1.5244740698466344e-05
1.5930844848739911e-06,1.8057583689365973e-06,2.6896871087263507e-06,1.560341022379059e-05
1.6307514732254865e-06,1.842714882880012e-06,2.768149119659976e-06,1.5963040188521784e-05
1.6695966560524225e-06,1.8804733436617119e-06,2.846494124809031e-06,1.6323734661694116e-05
1.7099067377826338e-06,1.9193939582934686e-06,2.924838180751914e-06,1.6686511022870195e-05
1.7518625870206884e-06,1.9592865513999144e-06,3.003537417789723e-06,1.705277073220072e-05
1.7953500867647073e-06,1.999561008740692e-06,3.0845554561888645e-06,1.742329689431125e-05
1.8398726851812423e-06,2.039718035051419e-06,3.1709620128323145e-06,1.7797998626039835e-05
1.884819137365672e-06,2.079675777581288e-06,3.2638076522312593e-06,1.817648830700461e-05
1.929771308967338e-06,2.1197809356493973e-06,3.360931303733651e-06,1.855833194702441e-05
1.9745697786068593e-06,2.160641990101096e-06,3.459566397298796e-06,1.89430361379409e-05
2.0191979046853417e-06,2.202906358310217e-06,3.5591085851663772e-06,1.9330253425706997e-05
2.063614160285506e-06,2.246855245417662e-06,3.660625651647418e-06,1.9719858621867852e-05
2.107710782885323e-06,2.292059211680487e-06,3.765279960252188e-06,2.01122177032398e-05
2.151409625167532e-06,2.337670098106663e-06,3.873957787245395e-06,2.050796326647347e-05
2.194736575102238e-06,2.383165442158988e-06,3.987214288497218e-06,2.0906832822218716e-05
2.2377729100281115e-06,2.428490596448783e-06,4.105100347504208e-06,2.130807285050416e-05
2.2805229372044688e-06,2.4735830849331965e-06,4.227037407191827e-06,2.1711594324258413e-05
2.3229127325092958e-06,2.518362461316506e-06,4.351816832337931e-06,2.2117787787860657e-05
2.3649518571331413e-06,2.5628794934060194e-06,4.477842959230282e-06,2.252745306327231e-05
2.4068307017034874e-06,2.607101015224153e-06,4.603754841154297e-06,2.2941739600910642e-05
2.448816425698596e-06,2.6509036734030848e-06,4.729159048583198e-06,2.3361132142415485e-05
2.4910421356578215e-06,2.694339817447734e-06,4.854523856399933e-06,2.3785073036865113e-05
2.533439188866537e-06,2.7376842045239974e-06,4.98035168052979e-06,2.4212807650742524e-05
2.5758783442187026e-06,2.7810941600527557e-06,5.106798120838541e-06,2.464339172161926e-05
2.6182825821729194e-06,2.8244636984142292e-06,5.233702945864698e-06,2.50752112014997e-05
2.660583188807845e-06,2.8678269816755886e-06,5.360588691307971e-06,2.5506710938472107e-05
2.7026673415608916e-06,2.9114910484787533e-06,5.486999561781048e-06,2.5937542301426698e-05
2.7444310186908214e-06,2.955674242156635e-06,5.613238497340388e-06,2.6368611436347925e-05
2.785894725604964e-06,3.000301216547132e-06,5.740147217733068e-06,2.6800894261834506e-05
2.8272415711676887e-06,3.045048413924419e-06,5.8678592696158e-06,2.7234318392189004e-05
2.868703041974178e-06,3.0898257612578163e-06,5.995606201082808e-06,2.7667938574502936e-05
2.910440049030881e-06,3.1350485577000858e-06,6.122571554361151e-06,2.8101299408280484e-05
2.9525581323262517e-06,3.180933853020031e-06,6.2484795882909554e-06,2.8535173443153534e-05
2.9951619993024056e-06,3.2270948211982923e-06,6.373525164192777e-06,2.8970560688787227e-05
3.038323200219245e-06,3.273024214278136e-06,6.4977763710809406e-06,2.940739815860314e-05
3.0820743230135816e-06,3.3185604157515537e-06,6.621348402857614e-06,2.984478540361734e-05
3.126352388720898e-06,3.3639429564552028e-06,6.744970414343746e-06,3.028243249448476e-05
3.170873892996699e-06,3.409616708207736e-06,6.86938358897985e-06,3.072129467941352e-05
3.2155281280050224e-06,3.4560276744305285e-06,6.994608595896993e-06,3.1162245986880155e-05
3.260558339013348e-06,3.5035244019521115e-06,7.120054504433074e-06,3.160496543867807e-05
3.305842376195018e-06,3.5521808247051007e-06,7.244923750701725e-06,3.2048362570838426e-05
3.351064786220756e-06,3.6016300996747375e-06,7.368751759213125e-06,3.24912531255922e-05
3.3964597522946003e-06,3.651237744774096e-06,7.491512824414762e-06,3.293343844835824e-05
3.442426427980676e-06,3.7007266235333183e-06,7.613317357755378e-06,3.337592903723188e-05
3.4890903036147997e-06,3.750547555956211e-06,7.734658636680537e-06,3.381951493663865e-05
3.5363991238393775e-06,3.801367252261027e-06,7.856318701898989e-06,3.4264273653163575e-05
3.584159750700856e-06,3.85359835306006e-06,7.978567100615056e-06,3.4710114792635925e-05
3.631980936810616e-06,3.907394340751931e-06,8.10096006535531e-06,3.5156802515929456e-05
3.6796296818066975e-06,3.962630163270814e-06,8.222963701574095e-06,3.560429624933811e-05
3.7275395019009236e-06,4.018922868236687e-06,8.344498434637182e-06,3.6053488715734245e-05
3.776539933988284e-06,4.0759822650127775e-06,8.465766411083914e-06,3.6505442812277755e-05
3.827293808840877e-06,4.133991404029624e-06,8.586761853138922e-06,3.696019470440462e-05
3.879994318808983e-06,4.193301204949149e-06,8.707210776682025e-06,3.741684361983118e-05
3.934313360223348e-06,4.253671007891229e-06,8.826931660179336e-06,3.7873768223097334e-05
3.989626841814876e-06,4.3143745307075515e-06,8.946095560339515e-06,3.832865872236588e-05
4.045249968938588e-06,4.375096739231928e-06,9.065266718798991e-06,3.877965158686117e-05
4.1006290516040774e-06,4.435853150005104e-06,9.185211425417093e-06,3.922705190583798e-05
4.1555225900329795e-06,4.496494437470763e-06,9.306399283616138e-06,3.967326870086493e-05
4.209936303692427e-06,4.557083940983586e-06,9.42864248489468e-06,4.0120812425367664e-05
4.26389035397765e-06,4.617939776711628e-06,9.55130607561403e-06,4.0570862630942446e-05
4.317344969396474e-06,4.679172370218187e-06,9.673752224621829e-06,4.10237664318511e-05
4.370254983392564e-06,4.740708007889337e-06,9.795418039480907e-06,4.147980161067112e-05
4.4226226851507725e-06,4.802359234898146e-06,9.91604690161254e-06,4.193881829606313e-05
4.4744745571890036e-06,4.863851679486497e-06,1.0036018259194622e-05,4.2400000771189564e-05
4.525829412355538e-06,4.925160387401815e-06,1.0155766949872475e-05,4.286255954931412e-05
4.576764556318236e-06,4.986370142600494e-06,1.027521165365374e-05,4.332627719988621e-05
4.627422996436228e-06,5.04732164559909e-06,1.0394043161439748e-05,4.379172223305184e-05
4.6778975531015225e-06,5.107953855860616e-06,1.0512234260018588e-05,4.4259691621167764e-05
4.728159619829107e-06,5.168450454985876e-06,1.0630091939393854e-05,4.472982539390306e-05
4.7780983814688226e-06,5.228859491478731e-06,1.0747786866451583e-05,4.52010425104642e-05
4.827656029624585e-06,5.288962419019785e-06,1.0865052388371995e-05,4.567288481709834e-05
4.877022580671118e-06,5.348549335790768e-06,1.09814292872898e-05,4.614533983727729e-05
4.92668836025087e-06,5.4076363663683675e-06,1.1096588245689621e-05,4.6618551016978396e-05
4.9771975742481665e-06,5.466246137416552e-06,1.121041544308144e-05,4.709285477383049e-05
5.028807133929673e-06,5.524283194909312e-06,1.132303500215538e-05,4.7568294074540865e-05
5.081366612353105e-06,5.581685772229975e-06,1.1434751550090068e-05,4.804450034242902e-05
5.134396411682578e-06,5.6385736708580114e-06,1.1545882138760624e-05,4.852138248264385e-05
5.187381697913248e-06,5.695365053115763e-06,1.1656566445788534e-05,4.8999154433120544e-05
5.240227713212028e-06,5.752574349374069e-06,1.1766674613444045e-05,4.947783250947111e-05
5.293176789922897e-06,5.810468060840748e-06,1.1875871660986645e-05,4.995721937615914e-05
5.346270162582192e-06,5.868935885125867e-06,1.1983987583894456e-05,5.04371184477617e-05
5.399264709824702e-06,5.927555739289184e-06,1.2091139136385574e-05,5.09174081519057e-05
5.4519812197333436e-06,5.985885057848516e-06,1.2197339772734032e-05,5.139782864123024e-05
5.504536990866962e-06,6.0438487355952676e-06,1.2302582071874277e-05,5.1877791743555786e-05
5.557280381555205e-06,6.101844421713806e-06,1.2406936507646108e-05,5.235670447238649e-05
5.610594103081237e-06,6.1604053766969314e-06,1.2510471768805544e-05,5.283471439010379e-05
5.6646749331749595e-06,6.219721344314242e-06,1.2613544335422461e-05,5.331277309070068e-05
5.719376358300604e-06,6.279432165964068e-06,1.2716693999671768e-05,5.379157354157108e-05
5.774399009672988e-06,6.339059393223695e-06,1.2820236256995168e-05,5.427063756906733e-05
5.829626104923151e-06,6.398727852556059e-06,1.2924233629897973e-05,5.474851799949026e-05
5.885144746100989e-06,6.459072554678918e-06,1.3028740454648731e-05,5.522383844783184e-05
5.941097218996145e-06,6.520583669216993e-06,1.3133895338924118e-05,5.569638390729838e-05
5.9976971880441064e-06,6.58340695164549e-06,1.3239573505611893e-05,5.616711614672777e-05
6.055316610896133e-06,6.647391126817317e-06,1.3345141187455404e-05,5.6637494547281836e-05
6.114357684693637e-06,6.712070138383184e-06,1.34498638189445e-05,5.710862724036252e-05
6.174994648250414e-06,6.7767610061281725e-06,1.3553451215079544e-05,5.758032802035202e-05
6.237021459011268e-06,6.8409788050998155e-06,1.3655956397106824e-05,5.8051798071408164e-05
6.299823030712735e-06,6.904749777473256e-06,1.3757361854772965e-05,5.852281081293514e-05
6.362703589217336e-06,6.968332002266261e-06,1.3857779824514614e-05,5.899350040649691e-05
6.425644235503181e-06,7.031962952499378e-06,1.3957691702585455e-05,5.9464154951542406e-05
6.489505850654337e-06,7.095871867731245e-06,1.4057377762203544e-05,5.9935207557249255e-05
6.555312538155393e-06,7.1601508921697435e-06,1.4156527949981392e-05,6.040669857194424e-05
6.623592406040885e-06,7.224590473138662e-06,1.4254997198812458e-05,6.087819860217692e-05
6.694147865865312e-06,7.288741252660859e-06,1.435332131643478e-05,6.13495086476734e-05
6.766205044014562e-06,7.352240691155731e-06,1.4451898615692968e-05,6.182074459958876e-05
6.838848108245922e-06,7.414983943002173e-06,1.4550258753082765e-05,6.229199506563452e-05
6.911298087376151e-06,7.4770092246327e-06,1.4647958714297509e-05,6.276329384505317e-05
6.983261161923735e-06,7.538370239550154e-06,1.4745528660123465e-05,6.323450215615002e-05
7.05512171754367e-06,7.599096063550384e-06,1.4843564390535658e-05,6.370538131178338e-05
7.127282856425043e-06,7.65928207190807e-06,1.4941960273081622e-05,6.4175998466301e-05
7.19954570230265e-06,7.718930053953346e-06,1.5040098664370746e-05,6.464663263122836e-05
7.27149307847719e-06,7.777983094639504e-06,1.5137275076912136e-05,6.511737749650773e-05
7.34322471901531e-06,7.83659482372975e-06,1.5233221730968e-05,6.558834139162483e-05
7.415310983738867e-06,7.89479023561698e-06,1.53281199474145e-05,6.60599047181276e-05
7.488244261795869e-06,7.952457022279704e-06,1.5422409110407622e-05,6.653232907180475e-05
7.562185002780633e-06,8.009582852001832e-06,1.551667922874241e-05,6.7004935488555e-05
7.636982653014928e-06,8.066220925787727e-06,1.5611460622445345e-05,6.747624170947576e-05
7.712236775637815e-06,8.122724104650462e-06,1.5707027249781333e-05,6.794568544965406e-05
7.787319700941603e-06,8.179598990052317e-06,1.5803440910520006e-05,6.841423407004451e-05
7.861790772749526e-06,8.237298726604084e-06,1.590059242107324e-05,6.888269294942998e-05
7.93575647668411e-06,8.296327874150977e-06,1.59979301430132e-05,6.935103178159712e-05
8.009437681897131e-06,8.356929179526699e-06,1.6094898154693087e-05,6.981876247674946e-05
8.082846755669643e-06,8.41857171437462e-06,1.6191921534552048e-05,7.028438271928298e-05
8.155959080041663e-06,8.480483708913501e-06,1.6289915314177614e-05,7.074646818107663e-05
8.228823835777153e-06,8.542843135498236e-06,1.638937208687491e-05,7.120528917349612e-05
8.301497964783192e-06,8.606491881004952e-06,1.6490659341558493e-05,7.16619136322778e-05
8.373959337075707e-06,8.671783033830188e-06,1.6594371526248243e-05,7.211732250771591e-05
8.446172421484503e-06,8.738376596013676e-06,1.670104918666951e-05,7.257237200702258e-05
8.518157111007005e-06,8.80567685529025e-06,1.6810753403088485e-05,7.302703759335566e-05
8.58989258603814e-06,8.873047598506431e-06,1.6922777112658642e-05,7.348037356215352e-05
8.661260792056887e-06,8.939991123310765e-06,1.7035574592626956e-05,7.39319097956961e-05
8.732197561151763e-06,9.006326831069126e-06,1.714795620194062e-05,7.438190753455119e-05
8.802822967366991e-06,9.072089838616187e-06,1.7260428739735677e-05,7.483065432284103e-05
8.873349575978228e-06,9.137540919422163e-06,1.737432714902393e-05,7.527824731764098e-05
8.943928933556905e-06,9.20292743432593e-06,1.749055392179586e-05,7.572433295900844e-05
9.01457669371625e-06,9.268068703654097e-06,1.760924185153723e-05,7.616834164327318e-05
9.085073301753834e-06,9.332673271577202e-06,1.772963450258468e-05,7.661039938393192e-05
9.155052092910502e-06,9.396922140911364e-06,1.7850430327722244e-05,7.705116857151671e-05
9.224334260539375e-06,9.461340015910828e-06,1.7970506882765415e-05,7.74908490985737e-05
9.292880240594644e-06,9.52612563133982e-06,1.8089412428008966e-05,7.792915699871628e-05
9.360668834791047e-06,9.590830400565403e-06,1.8207196459092145e-05,7.836581149666075e-05
9.427932805934242e-06,9.654992256173556e-06,1.8323946903608136e-05,7.880088004240184e-05
9.495071192423735e-06,9.718699966461142e-06,1.8439647190091802e-05,7.923451738335096e-05
9.562373180241585e-06,9.782094842757695e-06,1.8554258637858735e-05,7.96663812202715e-05
9.630009446280127e-06,9.845089789844879e-06,1.866786779753102e-05,8.009614524002555e-05
9.6979103816365e-06,9.90770496980729e-06,1.878072643073639e-05,8.052405783479943e-05
9.765740870391646e-06,9.970190484907742e-06,1.8893033736757657e-05,8.095049458151421e-05
9.833635477587848e-06,1.0032723560956808e-05,1.900492763485984e-05,8.137622366342327e-05
9.902508762258423e-06,1.0095132135999524e-05,1.9116637523629385e-05,8.180229543514265e-05
9.973195617428993e-06,1.0157460443672696e-05,1.922832376002541e-05,8.22284200912546e-05
1.004589133205246e-05,1.0220243138063196e-05,1.9339880903591414e-05,8.265350141163553e-05
1.012022442537264e-05,1.0283568717913593e-05,1.945104030072875e-05,8.307729226084392e-05
1.0195417748017891e-05,1.03468284907429e-05,1.956145025805442e-05,8.349997671845443e-05
1.0270543744117747e-05,1.040957418924842e-05,1.967064527006291e-05,8.392193375408557e-05
1.0345159248809531e-05,1.0471718861593487e-05,1.977827445045489e-05,8.434397546747169e-05
1.0419676899022033e-05,1.053312486490248e-05,1.9884255973132127e-05,8.476642000512895e-05
1.0494759375539133e-05,1.0593795532415334e-05,1.998866419878865e-05,8.518876316976887e-05
1.0570803418380063e-05,1.0654150485051884e-05,2.00917338372587e-05,8.561070906240862e-05
1.0647857180675962e-05,1.0714632632714668e-05,2.019369189784812e-05,8.60321326030134e-05
1.0725586966723827e-05,1.0775224265603678e-05,2.0294423607399954e-05,8.645266065073311e-05
1.0803452899755545e-05,1.0835475539370032e-05,2.0393818945849624e-05,8.687217031420124e-05
1.0880951292433577e-05,1.0894997914545749e-05,2.0492247908011383e-05,8.729067554970277e-05
1.0957703234483043e-05,1.0953770773574523e-05,2.05900308247511e-05,8.770796144856161e-05
1.1033519339397124e-05,1.1011908210738112e-05,2.0686893241142993e-05,8.812409519643537e-05
1.110847574709008e-05,1.1069385634498166e-05,2.0782498258895594e-05,8.853950552155849e-05
1.1182782531934902e-05,1.1126126874881142e-05,2.0877091036933068e-05,8.895429400583189e-05
1.1256625184196107e-05,1.1182242395666202e-05,2.0971148046481754e-05,8.936812744244852e-05
1.1330139401603425e-05,1.123796614785459e-05,2.1064815539212266e-05,8.978063932912523e-05
1.1403353846013109e-05,1.129334905228445e-05,2.1158086562290884e-05,9.019206252061817e-05
1.1476119816308557e-05,1.134818124163047e-05,2.125119817636753e-05,9.0603028694692e-05
1.1548146656853245e-05,1.1402271987117858e-05,2.1344530917536593e-05,9.101361634349728e-05
1.1619239315883904e-05,1.1455690963216835e-05,2.143835425012296e-05,9.14236076120175e-05
1.1689448684337185e-05,1.1508616838084517e-05,2.1532835738588394e-05,9.183302338628724e-05
1.1758846808268055e-05,1.156113744783498e-05,2.162808488723137e-05,9.224181478221376e-05
1.1827383871666998e-05,1.1613283962994974e-05,2.172421371474866e-05,9.265031926296625e-05
1.1894995075702867e-05,1.1665107120159349e-05,2.1821248691909226e-05,9.305919204605856e-05
1.1961685480556756e-05,1.171662698206422e-05,2.191882102664012e-05,9.346777529161764e-05
1.202753186562908e-05,1.17676903513192e-05,2.2016251805963915e-05,9.387483509603506e-05
1.20926152172237e-05,1.1818136939011789e-05,2.2113065511356932e-05,9.428048097897572e-05
1.215698580874528e-05,1.1868100805076469e-05,2.2209166381774284e-05,9.468557037597284e-05
1.2220707321234125e-05,1.1917774973638406e-05,2.2304597234597167e-05,9.509093654546428e-05
1.2283877556147755e-05,1.1967060117052631e-05,2.239935679323811e-05,9.549725723760251e-05
1.234657244187974e-05,1.2015798983685027e-05,2.2493403688263955e-05,9.590418097444526e-05
1.240877440876966e-05,1.2064250055104696e-05,2.2586675801685365e-05,9.631048877412688e-05
1.2470354745712161e-05,1.2113021267631716e-05,2.2678994256071952e-05,9.671571594820048e-05
1.2531139678973541e-05,1.2162576096860085e-05,2.2770037270470365e-05,9.712025743268153e-05
1.2591000910039227e-05,1.2212918813817311e-05,2.285954336711665e-05,9.752442878119497e-05
1.264988885616359e-05,1.2263629560131836e-05,2.2947510680238994e-05,9.792814018734052e-05
1.2707844670622426e-05,1.2314139970747838e-05,2.3034198787255272e-05,9.833047501932978e-05
1.2765005016634854e-05,1.2364016101565104e-05,2.3119924475883805e-05,9.873011488593282e-05
1.2821552454884595e-05,1.2413106683649712e-05,2.320475300520136e-05,9.912686135699282e-05
1.2877644134480365e-05,1.2461495725779136e-05,2.328843051454827e-05,9.952166298880792e-05
1.2933396304966658e-05,1.25093566134954e-05,2.3370795245230614e-05,9.991531309731784e-05
1.2988924900373208e-05,1.2556846457313799e-05,2.3452137313202202e-05,0.00010030809110340424
1.3044338454190381e-05,1.2604022611681262e-05,2.3533092265996123e-05,0.00010069993369273568
1.3099666424474366e-05,1.2650794907634251e-05,2.3614425532774424e-05,0.00010109080963483094
1.3154841864991947e-05,1.2696954560427596e-05,2.3696828490673623e-05,0.00010148073961612881
1.3209728666965425e-05,1.2742311821193015e-05,2.3780648324025287e-05,0.00010186934859409127
1.3264087992584609e-05,1.2786826814682879e-05,2.3865446130674466e-05,0.00010225632283110568
1.331769923238216e-05,1.283057290443959e-05,2.3950246692132067e-05,0.00010264168738460413
1.3370587612968374e-05,1.2873662813534622e-05,2.403495950541764e-05,0.00010302538629442007
1.3422925333533787e-05,1.2916267684672061e-05,2.4120557159594017e-05,0.00010340817773731394
1.3474818901463279e-05,1.2958609883772479e-05,2.420760568239004e-05,0.00010379177113455982
1.3526265839498815e-05,1.3000852384146287e-05,2.42958206258525e-05,0.0001041765732206518
1.357716982829716e-05,1.3042932641607206e-05,2.4384749182453412e-05,0.00010456166386975415
1.3627403566902029e-05,1.3084619898026826e-05,2.4473703182977223e-05,0.000104946604371819
1.367691179655831e-05,1.3125942266103827e-05,2.4562409669239548e-05,0.00010533129298967431
1.3725769322174133e-05,1.3167251980139809e-05,2.4652412626589547e-05,0.00010571563893008772
1.3774141997235405e-05,1.3208726629014905e-05,2.4745564948622546e-05,0.00010609961790797177
1.3822209187448702e-05,1.3250150503993806e-05,2.484158295329134e-05,0.00010648253738540456
1.387010191437714e-05,1.3291153082891161e-05,2.4938718070068346e-05,0.00010686318550249677
1.3917854073948636e-05,1.333161598326172e-05,2.5036650121412913e-05,0.0001072408308906488
1.3965421936060178e-05,1.337173283322154e-05,2.5137010785919914e-05,0.00010761452496805576
1.4012764921240283e-05,1.341153217122663e-05,2.5241040862585408e-05,0.00010798251940502974
1.4059877773373693e-05,1.3450795789883717e-05,2.534901199304165e-05,0.00010834372155676855
1.4106759137112575e-05,1.3489413556516571e-05,2.5461342412570055e-05,0.00010869861655315255
1.4153348849244335e-05,1.3527375109505838e-05,2.5578533619461093e-05,0.00010904898844546468
1.4199464289070237e-05,1.3564762767322077e-05,2.5699958457785614e-05,0.0001093977142631011
1.4244868002702122e-05,1.3601763519492752e-05,2.5823506765710585e-05,0.0001097477208265996
1.428946183207099e-05,1.3638354200731022e-05,2.594683100660331e-05,0.00011010023337624856
1.4333354534873061e-05,1.3674459806713305e-05,2.6068965620535126e-05,0.00011045438532515133
1.4376796930578577e-05,1.3710218626935567e-05,2.619042419148982e-05,0.00011080825744615507
1.4420114000369646e-05,1.3745660725154993e-05,2.631161652539363e-05,0.00011116028951922285
1.4463563982536212e-05,1.3780641341655285e-05,2.6432197076195495e-05,0.00011150930079991254
1.4507240352949696e-05,1.3815003346362898e-05,2.6551698796027073e-05,0.00011185388611950484
1.45511063521987e-05,1.3848711993666094e-05,2.666980818497908e-05,0.00011219367044047373
1.4595024193870833e-05,1.3881979168633702e-05,2.6786250594029838e-05,0.00011253010089515475
1.463882897975725e-05,1.3915020338119192e-05,2.690078578505628e-05,0.00011286495471463703
1.4682483096866472e-05,1.3947921277321585e-05,2.701329720792366e-05,0.00011319961775644216
1.4726097902636111e-05,1.39807689009944e-05,2.7123828904673844e-05,0.00011353499037809749
1.4769776508814643e-05,1.4013607320841505e-05,2.7232551364046592e-05,0.00011387050444515904
1.4813478668894947e-05,1.4046297835580453e-05,2.7339554252035073e-05,0.00011420502849873604
1.4856991533563522e-05,1.4078537410232089e-05,2.744476124165995e-05,0.00011453831339192597
1.4899985767076403e-05,1.4110137016960254e-05,2.7548120560340893e-05,0.0001148703231860739
1.494219026961279e-05,1.414129008981478e-05,2.764961881408362e-05,0.00011520114906725117
1.4983519955315688e-05,1.4172463679282806e-05,2.7749203330414698e-05,0.00011553141259046746
1.5023994399775366e-05,1.4204008019994699e-05,2.784684829086364e-05,0.00011586115322427725
1.5063660224270645e-05,1.4235877250134695e-05,2.794266980701834e-05,0.00011618945437693927
1.5102598036573708e-05,1.4267771154637401e-05,2.8036998045880594e-05,0.00011651587070257763
1.514090223425759e-05,1.429951190040493e-05,2.8130165317463905e-05,0.00011684065166313596
1.5178654723348729e-05,1.4331116575862947e-05,2.8222205269539005e-05,0.00011716403685209208
1.5215943903746462e-05,1.436254436442836e-05,2.831294554381614e-05,0.00011748629349984417
1.525291702775062e-05,1.4393567509948614e-05,2.840224707405748e-05,0.00011780739663750902
1.5289781155021505e-05,1.4423962453502924e-05,2.84900023097711e-05,0.00011812681442997696
1.532669331088348e-05,1.4453743963894752e-05,2.857606858836252e-05,0.00011844430298021781
1.5363642242164817e-05,1.4483146875461839e-05,2.8660430385373485e-05,0.0001187601275715437
1.5400528193013804e-05,1.4512410381098776e-05,2.874340680708814e-05,0.00011907442508135487
1.5437407254166115e-05,1.4541597480007783e-05,2.8825477417207455e-05,0.00011938702599311779
1.5474495237704057e-05,1.4570666916341709e-05,2.8906911774943785e-05,0.00011969757382125294
1.551184151972843e-05,1.4599623714434138e-05,2.8987637768879648e-05,0.00012000611730644767
1.554915098124636e-05,1.4628455560602779e-05,2.906743696029399e-05,0.0001203130533885828
1.5586019374508745e-05,1.4656987098245607e-05,2.9146307908022347e-05,0.00012061813966631348
1.562237042057483e-05,1.4685028681591354e-05,2.922456089012223e-05,0.00012092089286070754
1.565854210159541e-05,1.4712659282053457e-05,2.930245266879646e-05,0.0001212213658021407
1.569493096948047e-05,1.4740065894951257e-05,2.9379848383156185e-05,0.00012151992178550761
1.5731778348269425e-05,1.4767248177071873e-05,2.945624504905207e-05,0.00012181779053921909
1.5769140634760935e-05,1.4793998511960246e-05,2.9531185554474752e-05,0.00012211682020804316
1.58068307531637e-05,1.4820159958316577e-05,2.9604624771170532e-05,0.00012241719412253458
1.5844455993876934e-05,1.4845873079391452e-05,2.9676772195205638e-05,0.00012271763306357378
1.5881572288964406e-05,1.4871311666120174e-05,2.974787348019962e-05,0.0001230173730020464
1.5917932042727093e-05,1.4896367078060627e-05,2.9818111806639886e-05,0.00012331614950822427
1.595364378981337e-05,1.4920827558989768e-05,2.9887495475826732e-05,0.00012361414053591412
1.598900062418566e-05,1.494472629365128e-05,2.995591888443952e-05,0.0001239120705340338
1.6024195942720275e-05,1.4968335941345578e-05,3.0023349093406502e-05,0.0001242099187169328
1.6059209215099638e-05,1.4991817928858587e-05,3.008994433273592e-05,0.00012450665719011285
1.609394278954737e-05,1.5015069505745663e-05,3.0156045261626187e-05,0.00012480188906236937
1.612852736527616e-05,1.5037988391122157e-05,3.022200784924759e-05,0.00012509604820107195
1.6163495556061987e-05,1.5060765715083533e-05,3.028801638521477e-05,0.00012538949582587626
1.6199516156438576e-05,1.5083883420780234e-05,3.0354147542678427e-05,0.0001256824668108044
1.6236776819743315e-05,1.5107894494128804e-05,3.0420448458444323e-05,0.00012597473746723495
1.6274628332006515e-05,1.5133081465830495e-05,3.0486792196627778e-05,0.0001262654018537794
1.63123673472814e-05,1.5159063666662068e-05,3.0552933538861226e-05,0.00012655361461626961
1.635023452720569e-05,1.518526865874837e-05,3.061878668450366e-05,0.00012683872676664558
1.6388899198812096e-05,1.5212023542583027e-05,3.06843789186012e-05,0.00012712005823023142
1.642855689194382e-05,1.5240202112830395e-05,3.074955595261852e-05,0.00012739763910906682
1.6468889480788536e-05,1.5270025903886015e-05,3.081397811252672e-05,0.0001276725354317406
1.6509320310941485e-05,1.530096125683242e-05,3.0877410792150306e-05,0.0001279464267048339
1.6549372258035263e-05,1.533225582814695e-05,3.0939875118361575e-05,0.00012822043941088148
1.6589132763133667e-05,1.536335405046057e-05,3.100177194470602e-05,0.0001284939470772095
1.6629190156006436e-05,1.5394329612369495e-05,3.106429691251834e-05,0.00012876553850309577
1.6670064724817968e-05,1.5425789956420128e-05,3.112938845274279e-05,0.0001290345426430294
1.6711869181614008e-05,1.545811355428279e-05,3.119840689537331e-05,0.00012930120647315193
1.6754263138179804e-05,1.5491104268584277e-05,3.127065686373653e-05,0.00012956719153099305
1.679657550401272e-05,1.5524384153275023e-05,3.134403500759725e-05,0.00012983502870352018
1.683828190464811e-05,1.5557849602935195e-05,3.1417779319119126e-05,0.00013010549920186465
1.687933377220311e-05,1.5591538276691666e-05,3.14932406232426e-05,0.00013037732327138304
1.6919775284256856e-05,1.562520376320221e-05,3.1571722173110876e-05,0.00013064865688405822
1.6959464703380466e-05,1.565883578079694e-05,3.165316355877483e-05,0.0001309174067376265
1.699836039867523e-05,1.5693088146858265e-05,3.173616034351592e-05,0.0001311821744020989
1.703674701211134e-05,1.5728226251683966e-05,3.181905220604011e-05,0.00013144298956569548
1.7075061922282933e-05,1.576368266809003e-05,3.190162788871397e-05,0.000131699927208747
1.7113557593985033e-05,1.579896349087714e-05,3.198491449466163e-05,0.00013195240240902156
1.7152177326367804e-05,1.5834167424783016e-05,3.2070008256855536e-05,0.0001322003441227926
1.7190681950267967e-05,1.5869547975143987e-05,3.215772613254907e-05,0.00013244424058839443
1.7228781597169868e-05,1.5904933318108527e-05,3.2248151705591266e-05,0.00013268453043442527
1.726617922682758e-05,1.593984668517247e-05,3.234010497401091e-05,0.0001329219086669915
1.7302742149854566e-05,1.5974012149522975e-05,3.243176217283973e-05,0.0001331570799499273
1.7338634552485215e-05,1.6007619495921698e-05,3.25221609099234e-05,0.0001333904111565114
1.7374137154048457e-05,1.6041213256023573e-05,3.2611543316139295e-05,0.00013362240257578224
1.7409473009181914e-05,1.6075254809242382e-05,3.2700240348939836e-05,0.00013385353572552231
1.744474592922131e-05,1.610978000800209e-05,3.278798862627195e-05,0.00013408374069960897
1.7479876385374224e-05,1.6144424873032467e-05,3.2874302963063535e-05,0.00013431258118697003
1.7514619185863815e-05,1.6178722573823244e-05,3.295908160206157e-05,0.00013453943069887642
1.7548689332612596e-05,1.621249001869493e-05,3.304278558464794e-05,0.00013476421078920824
1.75819057650466e-05,1.6245889865859515e-05,3.31264131833109e-05,0.0001349876642811581
1.7614247251864207e-05,1.627913470395355e-05,3.321083558980922e-05,0.00013521018494755602
1.7645811126386697e-05,1.6312229274701108e-05,3.329567305602784e-05,0.00013543158759472736
1.767672434588815e-05,1.6344947849610704e-05,3.337974730568229e-05,0.000135651583722399
1.770707581364043e-05,1.637704920238328e-05,3.346256411967141e-05,0.00013586984592837967
1.7736950320768063e-05,1.640862337281791e-05,3.3544446061250703e-05,0.00013608712084310485
1.7766470234778906e-05,1.6440175447774634e-05,3.362584018882618e-05,0.00013630527685347456
1.779567075267688e-05,1.6472228629723983e-05,3.370721309792434e-05,0.00013652476890463496
1.7824344566343642e-05,1.6504865073350752e-05,3.378931336515817e-05,0.00013674442060152356
1.785227623113336e-05,1.653765632042866e-05,3.387315130852202e-05,0.00013696331151208561
1.7879529328504632e-05,1.6570010765918338e-05,3.395930415321083e-05,0.0001371809767930378
1.7906253983289205e-05,1.6601590965867394e-05,3.4047104613035975e-05,0.00013739747768915701
1.7932554776886377e-05,1.663245147387654e-05,3.4134848372789936e-05,0.0001376134567012471
1.7958599960590997e-05,1.6662860094685486e-05,3.4221524045355656e-05,0.00013782897732651737
1.7984597883014543e-05,1.669296052110612e-05,3.430801581862371e-05,0.0001380434583538125
1.8010666385421117e-05,1.672258938230409e-05,3.439608164919852e-05,0.00013825706547758782
1.8036728498629786e-05,1.675161031657119e-05,3.4487061222327545e-05,0.00013847043036373008
1.806248829097101e-05,1.6780201187974736e-05,3.458134184119543e-05,0.00013868367260678877
1.8087603120502113e-05,1.680855918530796e-05,3.467833891533722e-05,0.00013889671219210117
1.8111935210285627e-05,1.683669394733509e-05,3.477682480934233e-05,0.00013910925684450717
1.81355023309979e-05,1.686440574105765e-05,3.4875094254129696e-05,0.0001393205662667573
1.815827422180507e-05,1.6891539539884522e-05,3.497212555622728e-05,0.00013953020475777973
1.818021324940805e-05,1.691837490477476e-05,3.5068786710061655e-05,0.00013973845543421704
1.820140618724352e-05,1.6945331096569857e-05,3.5166794886496104e-05,0.00013994579959251242
1.8222015941931778e-05,1.6972537805360714e-05,3.526722118718515e-05,0.00014015247286701125
1.8242164675198908e-05,1.6999823507652137e-05,3.536977883964952e-05,0.00014035826260061924
1.8261868768654015e-05,1.7026879591445933e-05,3.547280635467624e-05,0.00014056310212911234
1.8281003741336007e-05,1.7053517517239295e-05,3.557473942174794e-05,0.00014076714129067908
1.8299531573043188e-05,1.7079802650304555e-05,3.5675399527316815e-05,0.00014096982561177706
1.8317783591103568e-05,1.710583141887777e-05,3.577535909850773e-05,0.0001411704005196569
1.83361323449622e-05,1.7131480229748975e-05,3.5875050058597924e-05,0.00014136873398894125
1.835450970022454e-05,1.7156714465095054e-05,3.5974566787968506e-05,0.00014156488782477987
1.8372568882210547e-05,1.7181836525642403e-05,3.6073599973754216e-05,0.00014175946651451008
1.839030428238633e-05,1.720713314175581e-05,3.617153573743333e-05,0.00014195350958329754
1.840818568907789e-05,1.723264801764551e-05,3.6267724128138715e-05,0.00014214658907255243
1.84265051621539e-05,1.7258116643982365e-05,3.636184094772426e-05,0.00014233721232717435
1.8444936044639357e-05,1.728362256451176e-05,3.6453964206414125e-05,0.00014252472366086633
1.846333603043612e-05,1.7310304465871133e-05,3.654425823176025e-05,0.00014270926686864722
1.8482446996916315e-05,1.733923626318587e-05,3.6632786153817186e-05,0.00014289176737640024
1.8502908361037976e-05,1.7370137272982587e-05,3.671957346316349e-05,0.0001430737577333373
1.8524415339558933e-05,1.7401885385719975e-05,3.6804684599627586e-05,0.00014325565319115252
1.8546100470281558e-05,1.7434212916349847e-05,3.688838239128092e-05,0.00014343640939308138
1.856733031811602e-05,1.746799404796619e-05,3.6971253172325046e-05,0.00014361535546798172
1.8588206596891144e-05,1.7503675276571197e-05,3.7053966718302935e-05,0.00014379261570100546
1.8609267273273962e-05,1.7540648360711865e-05,3.7136873664209064e-05,0.00014396848663820634
1.8630938524036894e-05,1.7577914102136945e-05,3.7219857261837245e-05,0.00014414355426494734
1.8653287668445047e-05,1.7614769313040048e-05,3.7302441676438814e-05,0.0001443181450745739
1.8676043286321686e-05,1.7651131919493596e-05,3.7384001443021375e-05,0.0001444917115894732
1.869875956697555e-05,1.7687361590916143e-05,3.7463970671095073e-05,0.00014466356365372342
1.8721044887337356e-05,1.7723685600142864e-05,3.754198602602023e-05,0.00014483340008431575
1.8742666801602823e-05,1.7759793874979278e-05,3.7617923868533246e-05,0.00014500104800885575
1.8763710188762585e-05,1.7795185076499544e-05,3.7691791591785924e-05,0.00014516643546600062
1.8784602842609665e-05,1.7829642717804103e-05,3.776366142938637e-05,0.00014532955567829253
1.8805489601059995e-05,1.7863160588139373e-05,3.7833771867440875e-05,0.00014549088535719407
1.8826058998923713e-05,1.7895780698444314e-05,3.790252353107857e-05,0.0001456512831525637
1.884625855687485e-05,1.7927513200759825e-05,3.797013522268109e-05,0.00014581097279720123
1.8866527815576455e-05,1.795838741433282e-05,3.803646386448768e-05,0.00014596986494935796
1.888738488838844e-05,1.7988517372168007e-05,3.8101540306466214e-05,0.00014612809514578034
1.8909146824286312e-05,1.801803155098108e-05,3.816575657918811e-05,0.00014628548081260258
1.8931797640337117e-05,1.8047375577177708e-05,3.822926641476902e-05,0.00014644218349480124
1.895491907435238e-05,1.807732991786943e-05,3.829184415828227e-05,0.0001465991392721197
1.8977855320418957e-05,1.810819959364031e-05,3.8353244799646534e-05,0.0001467564337516233
1.9000298086390465e-05,1.8139472177787094e-05,3.8413463583318285e-05,0.00014691349181858652
1.902261541179919e-05,1.8170405576857062e-05,3.847275865041125e-05,0.0001470704312518138
1.9045309301336677e-05,1.82006109667561e-05,3.8531340500513765e-05,0.00014722750220167013
1.9068597889237866e-05,1.8230106159802256e-05,3.858908897851301e-05,0.00014738494193029334
1.909251470415639e-05,1.8259036037683734e-05,3.8645743005353756e-05,0.0001475431574424443
1.9117037014797813e-05,1.8287375831494035e-05,3.8701232214537124e-05,0.0001477015218126248
1.9142134152577756e-05,1.8315052526100138e-05,3.875564499779455e-05,0.000147858420939427
1.9167792556479756e-05,1.834229593097817e-05,3.8808873118572395e-05,0.00014801333157112804
1.919412928463827e-05,1.836943361015386e-05,3.8860859880586925e-05,0.00014816708173471846
1.922141115833009e-05,1.839652254742279e-05,3.891237535929833e-05,0.00014832016523328245
1.9249673185443182e-05,1.8423359700009696e-05,3.896456895428286e-05,0.00014847156825319185
1.927826987097763e-05,1.8449658890844516e-05,3.901774991752944e-05,0.00014861901008471
1.9306560718535565e-05,1.8475245421715392e-05,3.907094538042633e-05,0.00014876116990797
1.9334777751841718e-05,1.8500140318583507e-05,3.912325184589121e-05,0.00014889786524872217
1.936338781453203e-05,1.8524502677017447e-05,3.917522827858164e-05,0.00014902876957234313
1.9392524805437765e-05,1.8548474402478417e-05,3.92278848137163e-05,0.00014915512976604545
1.9422169537283668e-05,1.857195846679295e-05,3.9281745359026024e-05,0.00014927983875779582
1.9452144653892566e-05,1.8594744434379292e-05,3.9336854958014755e-05,0.00014940502547578072
1.948200748003338e-05,1.8616775199845307e-05,3.939256672974791e-05,0.00014953151287853852
1.9511364663774278e-05,1.8638102573652615e-05,3.9447832169817244e-05,0.00014965911683744652
1.9540425632709205e-05,1.8658982662128175e-05,3.9501960115175874e-05,0.00014978668717526516
1.956986902863737e-05,1.8679857427042333e-05,3.9554906221860385e-05,0.00014991312977246602
1.9600221978871294e-05,1.8700950503598237e-05,3.9606887979966575e-05,0.00015003829032177168
1.96314857810009e-05,1.8721954920675176e-05,3.9658112517175934e-05,0.00015016253722658702
1.9663167557277672e-05,1.8742623283117587e-05,3.97087150307593e-05,0.00015028695864937686
1.9694597486011165e-05,1.8763447912540005e-05,3.97583881504091e-05,0.00015041278462416295
1.9725273093472093e-05,1.8784895250894967e-05,3.9806708454458704e-05,0.00015053928058540928
1.9755010704880304e-05,1.8806707899443517e-05,3.9853728409652575e-05,0.00015066460225107795
1.978387068548465e-05,1.8828247157044522e-05,3.989949568825971e-05,0.0001507880794925364
1.9812037062522897e-05,1.884910400850874e-05,3.994430104498002e-05,0.00015090985754413313
1.983970543787838e-05,1.8869358788290438e-05,3.9989370025727154e-05,0.00015103040742458904
1.9866942719871516e-05,1.8889263224336694e-05,4.003638495524615e-05,0.0001511505414773267
1.9893632704874042e-05,1.890904725040599e-05,4.0086512831980714e-05,0.00015127023284083887
1.991956009251741e-05,1.8928933810027485e-05,4.013958009607413e-05,0.0001513883970550961
1.9944602377350804e-05,1.894900734588159e-05,4.019415710161391e-05,0.00015150451413323466
1.996890193569274e-05,1.8969069545164638e-05,4.0248522100754684e-05,0.00015161893060978315
1.999281683204552e-05,1.8988713274769877e-05,4.030164929810255e-05,0.00015173214219269305
2.0016703124949597e-05,1.9007669825820104e-05,4.035365149488942e-05,0.0001518447710800139
2.0040746742440162e-05,1.9025885815832508e-05,4.040513380173496e-05,0.00015195703164326161
2.006493098099614e-05,1.9043380847121418e-05,4.045613314161886e-05,0.00015206830794839969
2.0089108740868706e-05,1.9060333706021736e-05,4.050606171590532e-05,0.00015217808575455994
2.011310187632667e-05,1.9076940496619787e-05,4.0554626247920185e-05,0.0001522864830889296
2.0136772426750886e-05,1.909321678636373e-05,4.060210534381736e-05,0.00015239373400205306
2.015999644276693e-05,1.9109104221647686e-05,4.064870273746222e-05,0.00015250007677455646
2.018256260990344e-05,1.9124512969170598e-05,4.069517192771221e-05,0.00015260582440410525
2.0204330708621026e-05,1.913939107699501e-05,4.074309851123308e-05,0.00015271151260064607
2.0225488721450303e-05,1.9154012769255007e-05,4.0792690349300124e-05,0.00015281748074492816
2.0246368871437412e-05,1.9168947335594996e-05,4.0842617351672875e-05,0.0001529231736039427
2.026715464689743e-05,1.9184600319667716e-05,4.089264809102818e-05,0.00015302813007251552
2.0287891701074054e-05,1.9200897989265984e-05,4.094388469074161e-05,0.00015313272559478795
2.03085863117608e-05,1.9217313528187603e-05,4.099670413133132e-05,0.00015323705905091742
2.0329216338706208e-05,1.9233327404536256e-05,4.105003359735401e-05,0.00015334081389012705
2.034974038223106e-05,1.9248903449832547e-05,4.110240060375932e-05,0.00015344338200854666
2.0370140355173796e-05,1.926428496943265e-05,4.115308529946736e-05,0.00015354297512545136
2.0390423657139182e-05,1.9279596212006516e-05,4.12024244908332e-05,0.0001536383189816461
2.0410628129813075e-05,1.9294821668963282e-05,4.125133714461556e-05,0.00015373073213875382
2.043080805611538e-05,1.930992688746147e-05,4.1300429502780754e-05,0.00015382255722604048
2.0450940640763715e-05,1.9324976780281482e-05,4.1349536218100006e-05,0.00015391543233188968
2.0470914551414348e-05,1.934018402607775e-05,4.1397987196389505e-05,0.000154010018366482
2.0490657888431726e-05,1.9355777059001912e-05,4.144510417929332e-05,0.00015410542943414604
2.051015766963581e-05,1.9371789505152418e-05,4.1490779520669176e-05,0.00015419974655209745
2.05293390059921e-05,1.9387959882701683e-05,4.153560599322449e-05,0.00015429203173173442
2.0548027129678733e-05,1.940382274951248e-05,4.158023800778085e-05,0.0001543827428830262
2.0566044575760878e-05,1.9419005332158246e-05,4.162476529568289e-05,0.00015447289033475238
2.0583483753855725e-05,1.9433377693365788e-05,4.166870845967997e-05,0.0001545635664573784
2.0600863118793193e-05,1.9446917528065555e-05,4.17114957073534e-05,0.0001546548747536045
2.0618800725817704e-05,1.9459740927173877e-05,4.175272674583362e-05,0.00015474546891884768
2.0637615701957476e-05,1.947235714537488e-05,4.1792414215867344e-05,0.00015483406602606796
2.065727559819201e-05,1.9485653586621284e-05,4.183142878765339e-05,0.00015492052175635374
2.067752165400121e-05,1.9500343028097917e-05,4.1871074124198674e-05,0.00015500532951958393
2.0697938017108176e-05,1.951649235398273e-05,4.191206932411709e-05,0.0001550889266470964
2.0717997359918694e-05,1.953358360740757e-05,4.195401450386463e-05,0.0001551711493329252
2.073746042111675e-05,1.955082480912255e-05,4.1995646961304354e-05,0.00015525180185639996
2.0756604780591837e-05,1.9567656555954404e-05,4.2036123347124366e-05,0.00015533122839110462
2.077558822928643e-05,1.9584233310628315e-05,4.2075895004124266e-05,0.00015540970231156523
2.0794103279257984e-05,1.960131801601273e-05,4.211558609266183e-05,0.00015548769209752355
2.0811806483604838e-05,1.961972813301721e-05,4.215478225448813e-05,0.00015556603221872635
2.0828607441473154e-05,1.9639899294157502e-05,4.2192837365635644e-05,0.00015564472526583058
2.0844582992134493e-05,1.9661795194895124e-05,4.223011215116346e-05,0.00015572306272508896
2.0859829528072678e-05,1.968496075135465e-05,4.2267472432612765e-05,0.00015580002882093942
2.0874438731105296e-05,1.9708569244389278e-05,4.2305150392192076e-05,0.00015587350658297544
2.0888501949053737e-05,1.973234933211703e-05,4.2342483056564525e-05,0.0001559419490045943
2.0902055370927028e-05,1.9757189126637908e-05,4.2378605753175315e-05,0.00015600634739610945
2.091509834897462e-05,1.9783818074872764e-05,4.241312783038317e-05,0.00015606862906074578
2.0927797754996497e-05,1.9812070105314175e-05,4.244601417316849e-05,0.00015613032234248258
2.094065776589885e-05,1.98416188430347e-05,4.2477397139004476e-05,0.00015619273935391822
2.095433695261027e-05,1.9872443691421252e-05,4.250729638765527e-05,0.00015625616592461326
2.0969208723540488e-05,1.99046347541323e-05,4.2535533090664696e-05,0.0001563195912356262
2.098509422897699e-05,1.9938061431853238e-05,4.2562065240267944e-05,0.00015638211318497644
2.100131688861961e-05,1.997233600099181e-05,4.258701692014284e-05,0.00015644328531651188
2.1017282400550663e-05,2.0006981585170768e-05,4.2610706774841235e-05,0.00015650275580108352
2.103314141663195e-05,2.004158133845848e-05,4.2633903572055126e-05,0.00015656053372856469
2.1049503502447006e-05,2.0075822365933136e-05,4.265802653678693e-05,0.0001566163715243093
2.1066838190424072e-05,2.0109454328229213e-05,4.268483358594498e-05,0.00015666929927967286
2.1085353845120812e-05,2.0142272430091383e-05,4.271521245979012e-05,0.00015671907348616313
2.1104997660460683e-05,2.0174290544963993e-05,4.274818176677299e-05,0.0001567670426168604
2.1125554162440445e-05,2.0205813884992777e-05,4.278167731306602e-05,0.0001568147847634439
2.1146892476011104e-05,2.023715454221224e-05,4.281484235429137e-05,0.00015686267268066496
2.1169014612841675e-05,2.026846183148334e-05,4.2848910172164484e-05,0.00015690979371622772
2.1191891782843427e-05,2.0299810943085422e-05,4.288590923166494e-05,0.00015695538912112371
2.1215501341874562e-05,2.033128148925133e-05,4.292771246455146e-05,0.00015699959446142085
2.1239902968494753e-05,2.0362962166563534e-05,4.2975411823709e-05,0.0001570426396332241
2.1264950581581492e-05,2.0394862271840316e-05,4.302869907354221e-05,0.00015708495230763115
2.1289991787477515e-05,2.0426775059878067e-05,4.308615491578067e-05,0.00015712732421751857
2.1314583364515754e-05,2.045825790566686e-05,4.314589701967397e-05,0.00015717003931151546
2.133930017197873e-05,2.048890739576195e-05,4.320605585611595e-05,0.00015721326895024127
2.1365053614217354e-05,2.0518603309682224e-05,4.326529421772242e-05,0.00015725744390837035
2.1392301068477773e-05,2.0547422425277336e-05,4.3323322354393306e-05,0.0001573020326755182
2.1420920949347007e-05,2.0575578134128683e-05,4.338086063984348e-05,0.00015734617385385557
2.1450229102203842e-05,2.0603377872854012e-05,4.34388631440861e-05,0.00015738981817173213
2.1479341292209733e-05,2.063094018320704e-05,4.3497685703754845e-05,0.00015743270552620505
2.1507882389773973e-05,2.0658062072578286e-05,4.355710368098012e-05,0.0001574744530000732
2.1536229989156895e-05,2.0684737651646082e-05,4.361692970842948e-05,0.00015751557251125905
2.1564947385440357e-05,2.07114643445659e-05,4.367700972070376e-05,0.00015755661072046473
2.1594291247497718e-05,2.073858874784836e-05,4.373653945961583e-05,0.00015759738456863908
2.1624039259929212e-05,2.076583344194194e-05,4.3794986783250626e-05,0.00015763771766800938
2.1653554172205904e-05,2.079263578114278e-05,4.3853525027030005e-05,0.00015767737943721434
2.168227353928249e-05,2.0818707428291673e-05,4.391394576844362e-05,0.00015771614739209247
2.1710018646552876e-05,2.084423025311479e-05,4.397753992750784e-05,0.00015775492001916745
2.1736850647695868e-05,2.0869576414901314e-05,4.404537941160768e-05,0.0001577951691806976
2.176290259830291e-05,2.0894942969765403e-05,4.4118521135737205e-05,0.00015783742008879405
2.1788179155591697e-05,2.0920194405409522e-05,4.419771036336891e-05,0.00015788135208106573
2.1812697573456048e-05,2.0944946811926965e-05,4.428245313131576e-05,0.00015792629121816058
2.1836713619666647e-05,2.0968868587885224e-05,4.437000954912899e-05,0.00015797104862311454
2.186042569073482e-05,2.0992013337535776e-05,4.445853023910275e-05,0.00015801405612973746
2.1883789246626946e-05,2.1014760275035824e-05,4.455063028307579e-05,0.00015805375696535624
2.1906678222181094e-05,2.103738777451875e-05,4.464890450290742e-05,0.00015808964999567212
2.192901399041337e-05,2.1059866919466446e-05,4.475177068698373e-05,0.00015812254877737837
2.195074835324112e-05,2.1082074172525725e-05,4.485595008986776e-05,0.00015815326315167955
2.1971748211613655e-05,2.11041201312383e-05,4.495939274056473e-05,0.00015818219227673198
2.19919382568875e-05,2.1126343563437232e-05,4.506149105107915e-05,0.00015820952672231133
2.2011530217750564e-05,2.1148941811950437e-05,4.516183219747507e-05,0.00015823509550171323
2.2030772275838982e-05,2.117186669497918e-05,4.5260011785021374e-05,0.0001582594633913648
2.2049632370081143e-05,2.1195100361710485e-05,4.535615272624725e-05,0.00015828413718645275
2.2067861736400947e-05,2.1218690242157372e-05,4.545042703414782e-05,0.0001583092543425235
2.2085386865212987e-05,2.1242327708679845e-05,4.554260822211691e-05,0.00015833350694509512
2.2102532158616292e-05,2.1265728351737328e-05,4.563254713363398e-05,0.00015835610166949426
2.2119676832531325e-05,2.12895803666382e-05,4.572056357189983e-05,0.0001583770269295426
2.2136923577889347e-05,2.131496391564497e-05,4.580717530764113e-05,0.0001583970771332013
2.2154148379454805e-05,2.1342207537143534e-05,4.589277343237217e-05,0.00015841764657558086
2.217121529528566e-05,2.1370838629591088e-05,4.597739167980425e-05,0.00015843910822587248
2.2188085399358878e-05,2.1400153943339215e-05,4.606050616302988e-05,0.00015846045785610212
2.2204718030108796e-05,2.1429632455894857e-05,4.6141732769590676e-05,0.00015848102722092205
2.222096637174033e-05,2.1458917380317863e-05,4.622146878528984e-05,0.00015850092291103075
2.2236585580600996e-05,2.1487661891730782e-05,4.629998161669814e-05,0.00015852063122018538
2.2251433589201294e-05,2.1515581479836337e-05,4.637684262506205e-05,0.0001585413362064013
2.2265728251855532e-05,2.1542665198025092e-05,4.645177843956348e-05,0.0001585638685610322
2.227995328695518e-05,2.1569136647305528e-05,4.652515087259137e-05,0.0001585869810524337
2.2294556347257706e-05,2.159503587293651e-05,4.659754382655793e-05,0.0001586079790123761
2.2309711069265988e-05,2.1620462402789506e-05,4.6669375419734515e-05,0.0001586247191910367
2.2325192861687667e-05,2.1646378991648597e-05,4.674065356189495e-05,0.00015863653692386147
2.234050650999489e-05,2.1674122276601377e-05,4.6810827506749275e-05,0.0001586438683627997
2.23552234279529e-05,2.1704129543847618e-05,4.688001654112851e-05,0.00015864734480721472
2.2369239289259365e-05,2.1735596704669892e-05,4.6950048826157137e-05,0.00015864810798230133
2.238268594934498e-05,2.17671762489627e-05,4.70224907218608e-05,0.00015864818961739527
2.2395655025925185e-05,2.1798073468498033e-05,4.709659766952615e-05,0.0001586493506559112
2.240805774091508e-05,2.182841401478221e-05,4.717065140784651e-05,0.0001586524265379462
2.241969477605221e-05,2.1858534052183264e-05,4.724455343238475e-05,0.00015865739141605222
2.2430434267599332e-05,2.1888420579393247e-05,4.731957362566767e-05,0.00015866342988306848
2.244027091394046e-05,2.1917771901508566e-05,4.7396418740374045e-05,0.0001586702806249057
2.244926880269063e-05,2.1946260730458497e-05,4.7474868721831985e-05,0.00015867856410339525
2.2457498176596135e-05,2.1973874693104806e-05,4.755439772601526e-05,0.00015868781692916805
2.246494383644132e-05,2.2001104062609537e-05,4.763458905551617e-05,0.0001586968770132474
2.2471520323397638e-05,2.2028695841625253e-05,4.771505690173088e-05,0.00015870564358395773
2.247718523242421e-05,2.205721770096265e-05,4.779508011899155e-05,0.00015871444506609906
2.2482019609798885e-05,2.2086896025391516e-05,4.7873621286894395e-05,0.0001587235482151322
2.2486285606794546e-05,2.2117518284516892e-05,4.7950048031112263e-05,0.00015873345830358856
2.2490390702549198e-05,2.2148297545905926e-05,4.8024378510689805e-05,0.00015874406142376787
2.2494661231957052e-05,2.2178646967979566e-05,4.809672199487612e-05,0.00015875428307811072
2.2499099753634785e-05,2.2208753093588374e-05,4.816749618785605e-05,0.00015876310085709535
2.2503425379655722e-05,2.223858268502155e-05,4.823762453502281e-05,0.00015876943705569506
2.250733870432461e-05,2.226795817316523e-05,4.8307753930093245e-05,0.00015877195748815296
2.2510704778983166e-05,2.2297323860230504e-05,4.837787104089641e-05,0.00015877015675652071
2.2513549429638585e-05,2.2326829584594402e-05,4.844754656451315e-05,0.0001587645350074641
2.251590471046444e-05,2.2356099181315583e-05,4.851630035564698e-05,0.00015875630637071097
2.2517686332664697e-05,2.238531401569246e-05,4.858403092804862e-05,0.00015874794644882303
2.2518935084356568e-05,2.241524596171015e-05,4.8650927853853384e-05,0.00015874240096334067
2.2519976698331064e-05,2.2446551385015267e-05,4.871665634969172e-05,0.00015874082800514718
2.2521055140374837e-05,2.2479383154527548e-05,4.8780939826863364e-05,0.00015874162803594828
2.2522125196829075e-05,2.2513207029199966e-05,4.884486314289033e-05,0.00015874154147556106
2.2523050087340198e-05,2.2547051807639548e-05,4.8909807929213266e-05,0.00015873851406906863
2.2523721282966487e-05,2.2580216338066457e-05,4.8976068083236036e-05,0.00015873311492074635
2.2523971963976383e-05,2.2612689439021786e-05,4.904276179570222e-05,0.00015872690204552759
2.25236064569999e-05,2.2644755590754676e-05,4.910869920075902e-05,0.00015872127245499852
2.2522632110982344e-05,2.2676334218950883e-05,4.917385817212144e-05,0.00015871749019788113
2.2521249988463632e-05,2.2707354501865266e-05,4.9239041166305215e-05,0.00015871668109583505
2.2519557819375678e-05,2.273837494789002e-05,4.930436909098968e-05,0.00015872041078930228
2.2517414541617302e-05,2.276986594529083e-05,4.936918516433987e-05,0.00015872943403234284
2.251460299273487e-05,2.2801427999901837e-05,4.943288136532472e-05,0.00015874059564360932
2.2511019267861136e-05,2.283247277479186e-05,4.9495454071686365e-05,0.00015874901098720753
2.250665114675359e-05,2.2863050062178132e-05,4.955750411168682e-05,0.0001587526285699185
2.2501552316745376e-05,2.2893255521968313e-05,4.961960786181212e-05,0.00015875168484394062
2.2495980220690458e-05,2.29228464988921e-05,4.9681324589639435e-05,0.00015874797031560368
2.249039008209039e-05,2.2951814723733123e-05,4.974205066774831e-05,0.00015874454307640874
2.2485190759338314e-05,2.2980352713768454e-05,4.980272410814531e-05,0.00015874265900459508
2.2480464643736845e-05,2.3008383608726365e-05,4.986451697081384e-05,0.00015874125072241354
2.2475857313321023e-05,2.3035636408579033e-05,4.992720332925869e-05,0.00015873970371078962
2.2470909942954275e-05,2.3061989500780942e-05,4.998993229408292e-05,0.0001587383454857846
2.2465547797288087e-05,2.3087446346837933e-05,5.0052384804163415e-05,0.00015873726936465997
2.245999740939077e-05,2.3112107357658714e-05,5.0114867064061644e-05,0.00015873618123816812
2.2454369917875335e-05,2.3136489816124137e-05,5.017746835329375e-05,0.00015873422019132104
2.2448563078249323e-05,2.3161377351198385e-05,5.02393569061233e-05,0.00015873020419050263
2.2442425228050986e-05,2.318713951452016e-05,5.0300137828700306e-05,0.00015872408541550668
2.243586110812353e-05,2.3213606411806633e-05,5.03613688248691e-05,0.00015871695632720627
2.2428818010513787e-05,2.324048534347299e-05,5.042482230259431e-05,0.00015870933511154646
2.2421395257365084e-05,2.326743195176885e-05,5.04905335754878e-05,0.0001587006388724037
2.241391926748449e-05,2.3294022782211103e-05,5.0557117602581364e-05,0.00015868991009297182
2.240664408918937e-05,2.3320387882516264e-05,5.062283631833373e-05,0.000158676863868275
2.2399460693519757e-05,2.3347583046805228e-05,5.0686730468225006e-05,0.00015866190037365128
2.239201264341768e-05,2.337688986584906e-05,5.074909361433265e-05,0.00015864525969516813
2.2384047469810554e-05,2.3408865623829384e-05,5.081065135559074e-05,0.00015862738217867735
2.2375785028724723e-05,2.344277617855304e-05,5.0871679275812405e-05,0.00015860912946685484
2.236794761661309e-05,2.3477231035807055e-05,5.093175294494403e-05,0.00015859099337349645
2.2361229309893737e-05,2.351177351086623e-05,5.099020819873941e-05,0.0001585736903183601
2.2355762012387985e-05,2.3546954198479526e-05,5.1047068689741796e-05,0.00015855833656064719
2.2351145946264958e-05,2.3583016809712254e-05,5.110309696449803e-05,0.0001585443697985788
2.2346838438680276e-05,2.361943959315547e-05,5.115917227187544e-05,0.00015852974184492737
2.234234994381365e-05,2.365541384091858e-05,5.1215766508145635e-05,0.0001585131038020451
2.233739211589766e-05,2.3690397804986734e-05,5.127261027197118e-05,0.000158494371915688
2.2332094750998648e-05,2.372438666098835e-05,5.132888194856992e-05,0.00015847509470515397
2.232676488743598e-05,2.375785493060657e-05,5.138368660541656e-05,0.00015845806202555255
2.232150118951216e-05,2.3791357199628708e-05,5.143699075859268e-05,0.00015844471263447765
2.231619474653977e-05,2.3825148130489018e-05,5.14903052490954e-05,0.0001584338381148463
2.231070055233218e-05,2.385917473244097e-05,5.1545471134776275e-05,0.0001584232803564569
2.2304954429425682e-05,2.389309955182396e-05,5.160299729401368e-05,0.0001584112229287635
2.229908946047978e-05,2.3926546641737085e-05,5.166160211028875e-05,0.00015839671758301899
2.229358498566159e-05,2.395974657256843e-05,5.1719833191215495e-05,0.00015838032736395638
2.228914400261517e-05,2.399347214466944e-05,5.1778472592122965e-05,0.00015836325965434185
2.2286103765976514e-05,2.402826613378802e-05,5.1839929962771716e-05,0.00015834613237643912
2.2283902237901127e-05,2.406418745273266e-05,5.190607119321712e-05,0.00015832923148792285
2.2281828413422013e-05,2.410100551639296e-05,5.197773431574965e-05,0.0001583127901234348
2.2280227467054534e-05,2.413840210577514e-05,5.2055071848293735e-05,0.00015829666080841042
2.228012862519104e-05,2.4176108470247396e-05,5.213729369298951e-05,0.00015828007785288428
2.2282280438234102e-05,2.4213660080533862e-05,5.222189315410817e-05,0.00015826166490555917
2.2286760343531293e-05,2.425082306437721e-05,5.230672470280465e-05,0.0001582409503269108
2.2292971678223278e-05,2.4288573037727596e-05,5.239290364863381e-05,0.00015821904500222306
2.2299995575263913e-05,2.432832469013467e-05,5.2482218722853295e-05,0.00015819687907858002
2.2306968636335413e-05,2.437037872725671e-05,5.257379581468649e-05,0.0001581746952847027
2.2313656753979133e-05,2.441364642748509e-05,5.2665209541926384e-05,0.00015815275760884887
2.232071494578815e-05,2.4456698373824134e-05,5.275506716360161e-05,0.00015813140360861316
2.232884592850011e-05,2.4498766015440537e-05,5.28433877997947e-05,0.00015811135765928566
2.2338023401802182e-05,2.4539833402684724e-05,5.293051446086221e-05,0.0001580928912540055
2.234756815843056e-05,2.4580347294512798e-05,5.301702906775509e-05,0.0001580741074895088
2.2356696007696803e-05,2.462040909577014e-05,5.310369119240846e-05,0.00015805255096158232
2.236498730008299e-05,2.4659863954900597e-05,5.319076585078234e-05,0.00015802787543003568
2.237239656456426e-05,2.4699323488226954e-05,5.327772038494306e-05,0.00015800120247731446
2.23790054187133e-05,2.4739832100221664e-05,5.336354186290507e-05,0.00015797373129445633
2.2384894439250456e-05,2.478202670581284e-05,5.3447339015611684e-05,0.00015794640851855013
2.239034003003925e-05,2.4826014954591214e-05,5.352891124250696e-05,0.0001579194181327407
2.2395813105018403e-05,2.4871517398185723e-05,5.3608572413162245e-05,0.00015789222164322761
2.240155597381237e-05,2.4918060517981225e-05,5.368628410785666e-05,0.0001578645465170709
2.2407318375546874e-05,2.4965071179986248e-05,5.3761999111429056e-05,0.00015783655496757663
2.2412740401169694e-05,2.5011800800623717e-05,5.383644087668027e-05,0.00015780861198722265
2.2418014439058474e-05,2.5057930066423082e-05,5.3910289553140434e-05,0.0001577814400144721
2.2423730150412566e-05,2.5104114829093342e-05,5.398339558879322e-05,0.0001577555219428255
2.243013208217382e-05,2.5151020505427207e-05,5.40551418954749e-05,0.0001577302227503162
2.243693876386152e-05,2.5198392257141223e-05,5.41252330685606e-05,0.00015770397949786195
2.2443730088109528e-05,2.524560157632156e-05,5.419423410902099e-05,0.00015767552757329605
2.2450219078847108e-05,2.5292945099233338e-05,5.426331979452633e-05,0.00015764478733922937
2.245617118802195e-05,2.5341766746091664e-05,5.433354107839363e-05,0.0001576122710736784
2.2461411178647263e-05,2.5393187569198514e-05,5.440532717954802e-05,0.00015757781907968374
2.2465937362820677e-05,2.5447120841908785e-05,5.447851289088221e-05,0.00015754093001656057
2.246973761121648e-05,2.5502201430809814e-05,5.4552538524567755e-05,0.00015750206649371563
2.2472734373955213e-05,2.5556890583339744e-05,5.46261489207701e-05,0.00015746265993871742
2.2475058089210377e-05,2.5610520198202487e-05,5.469867211770418e-05,0.0001574242063251523
2.2476992978046925e-05,2.566292445654444e-05,5.477205930827675e-05,0.00015738767688585104
2.2478589341483184e-05,2.5714542871306686e-05,5.48492194036024e-05,0.00015735331756369783
2.247994918655702e-05,2.576729675015471e-05,5.4931464949917915e-05,0.00015732130281519898
2.2481579846129174e-05,2.5824085105384998e-05,5.501824283302524e-05,0.00015729195323874686
2.2483749377917543e-05,2.5887219020615214e-05,5.510770534956587e-05,0.00015726432326762326
2.2486126271030986e-05,2.595730997366073e-05,5.519738272885557e-05,0.0001572361850295393
2.248818733914766e-05,2.6033072398819497e-05,5.528548409430763e-05,0.00015720525636939248
2.2489790939233295e-05,2.6112052674418697e-05,5.5371929963183645e-05,0.00015716972649299787
2.2491439164126026e-05,2.619189168359258e-05,5.545738932460518e-05,0.00015712891925450206
2.249381397349481e-05,2.6271143077092247e-05,5.554194627160858e-05,0.00015708359868813347
2.2497205590799723e-05,2.6349179025081734e-05,5.5624978341039056e-05,0.00015703520512580933
2.2501321395031215e-05,2.642597526252418e-05,5.570587148283909e-05,0.00015698505243937525
2.2505432627742667e-05,2.65018656618886e-05,5.578473766762871e-05,0.00015693431958902434
2.2509056608148403e-05,2.657679225008109e-05,5.58622039814327e-05,0.00015688370251962415
2.251246135260034e-05,2.665050068415457e-05,5.593858245952657e-05,0.0001568330565419895
2.251618791866127e-05,2.6723185164023e-05,5.601341303651283e-05,0.0001567818156362731
2.2520578806054793e-05,2.6794823342268337e-05,5.6086094770413066e-05,0.0001567292520277174
2.252584176603591e-05,2.686518718193527e-05,5.615673908045162e-05,0.0001566746519904156
2.2532133726922036e-05,2.6934666326753644e-05,5.6225696571379975e-05,0.00015661761114130036
2.253945780779643e-05,2.7004063093233587e-05,5.629280877692124e-05,0.00015655802664242774
2.2547534133845202e-05,2.7074032927652377e-05,5.635800104684737e-05,0.00015649608014569672
2.2555927208872703e-05,2.7144584988117137e-05,5.6421561443517986e-05,0.00015643264530100856
2.256430000107153e-05,2.7214878365467136e-05,5.6483373395142945e-05,0.00015636894374610724
2.2572471470604318e-05,2.728409254492581e-05,5.6543311687901404e-05,0.0001563055448692764
2.2580255768889938e-05,2.7352085548160534e-05,5.6601772280506576e-05,0.00015624259727177543
2.2587444705688482e-05,2.74188393832605e-05,5.665909289747025e-05,0.00015618070018203893
2.2594116804505864e-05,2.7484223808189812e-05,5.6715264446095076e-05,0.0001561206166049673
2.2600713718848765e-05,2.7548246898169215e-05,5.676997704882557e-05,0.00015606234187515205
2.260760416348303e-05,2.7611085425919658e-05,5.682275614243825e-05,0.00015600488389217796
2.261477819501441e-05,2.7672827237259598e-05,5.6873197583607186e-05,0.00015594735342748932
2.2621954017329642e-05,2.7733381958750704e-05,5.692121217161592e-05,0.0001558896585783861
2.262878620507969e-05,2.7792928820180427e-05,5.696716614456922e-05,0.00015583155066431102
2.263497804796319e-05,2.7851958001224016e-05,5.701139162922528e-05,0.00015577257548531512
2.264036916607371e-05,2.7910978148411683e-05,5.705375865561186e-05,0.00015571269597879482
2.264500452602984e-05,2.7970546564394318e-05,5.709425098750016e-05,0.00015565194527506716
2.2649005628380252e-05,2.8031244912512854e-05,5.713325396956994e-05,0.0001555906225891938
2.265235713672834e-05,2.8093232929944393e-05,5.7171040115139656e-05,0.00015552964884344738
2.2654955661297432e-05,2.8155692762840065e-05,5.720769442466361e-05,0.00015546967170926442
2.2656814549140585e-05,2.821767622891159e-05,5.724315362710362e-05,0.00015541035672992292
2.2658046744038662e-05,2.8279304435202577e-05,5.7276995905883096e-05,0.00015535101926966363
2.265872677186119e-05,2.834078680503497e-05,5.7308966591997226e-05,0.00015529121640778145
2.2658833641629102e-05,2.840161945536444e-05,5.733933063493418e-05,0.00015523097075505177
2.26582686411891e-05,2.8461526412632754e-05,5.736803800301393e-05,0.00015517083086128707
2.2656952600122147e-05,2.8520757141887162e-05,5.7394745853492594e-05,0.00015511136399481184
2.2654907332249495e-05,2.857944946392763e-05,5.7419479497892984e-05,0.00015505273263688075
2.2652219823322643e-05,2.863752187218115e-05,5.7442191794668556e-05,0.00015499484980580435
2.2648996636039305e-05,2.8694899984349246e-05,5.7462618616995845e-05,0.00015493759221509162
2.2645410652373018e-05,2.875145220095136e-05,5.7480744094489006e-05,0.00015488062183855667
2.2641698323402887e-05,2.880691910701373e-05,5.749673167859449e-05,0.00015482343316394049
2.2638054489394204e-05,2.8861095046989255e-05,5.751078818100131e-05,0.0001547658934108851
2.2634550528443024e-05,2.8914014414470256e-05,5.7523638576945253e-05,0.00015470853051722204
2.2631116665846364e-05,2.8965866414357124e-05,5.753672765265148e-05,0.00015465203350760345
2.2627552885799672e-05,2.901681003018932e-05,5.755136194456173e-05,0.0001545965463838745
2.262357352656728e-05,2.9066787495014063e-05,5.7568026274315794e-05,0.00015454156579450433
2.261904368862828e-05,2.9115622947906863e-05,5.75867524924806e-05,0.0001544862845153004
2.261405283733424e-05,2.9163480087080044e-05,5.760777811168526e-05,0.00015442988618360085
2.260856220301444e-05,2.9210830118726284e-05,5.763171232513404e-05,0.00015437216300659442
2.260249908263234e-05,2.925791684830703e-05,5.765904926814371e-05,0.00015431359623217428
2.25961303916591e-05,2.930459104754894e-05,5.768951742655316e-05,0.0001542542816782438
2.2589883037025716e-05,2.9350499106381707e-05,5.7722035081002347e-05,0.0001541941910988536
2.2584070281737914e-05,2.939528029465661e-05,5.7755300892127686e-05,0.00015413393867859523
2.2578752016044552e-05,2.9438854392235928e-05,5.7788368149273236e-05,0.0001540739834993455
2.257361316293795e-05,2.9481479631650597e-05,5.782083400190092e-05,0.00015401427332140368
2.2568187648285387e-05,2.952336613463635e-05,5.7852589159094206e-05,0.0001539546768735205
2.256238205202904e-05,2.9564416735263994e-05,5.78833712433368e-05,0.00015389476538575102
2.2556588945815306e-05,2.9604341370979766e-05,5.791265807355212e-05,0.000153833834220392
2.2551288741488863e-05,2.9642979267215134e-05,5.793989872456595e-05,0.00015377172545425727
2.2546783667091537e-05,2.9680362593865385e-05,5.7964847966732404e-05,0.0001537088156798137
2.2543187187169632e-05,2.9716492928251224e-05,5.798765656809181e-05,0.0001536454043761864
2.25404625434443e-05,2.9751436206669886e-05,5.8008494004238033e-05,0.0001535815619442303
2.2538427046920917e-05,2.978538335230581e-05,5.8027383001841876e-05,0.00015351712213974763
2.2536788844861932e-05,2.9818428491497517e-05,5.804430854359813e-05,0.0001534519072158588
2.2535293951812595e-05,2.9850566611586603e-05,5.8059208585407824e-05,0.00015338615968614548
2.253381934774085e-05,2.988183300764938e-05,5.807209640020051e-05,0.0001533205547625707
2.2532301699146e-05,2.99122895234697e-05,5.808325639063499e-05,0.0001532556721715974
2.2530611750630058e-05,2.994195065401384e-05,5.8093385802557945e-05,0.00015319159035052427
2.2528502437237213e-05,2.9970904947833675e-05,5.810397516125203e-05,0.00015312773921243925
2.252579605607929e-05,2.9999469254685706e-05,5.811712081980008e-05,0.0001530631644965857
2.2522711066369e-05,3.002782642748288e-05,5.813402477021057e-05,0.0001529974040107842
2.2519765595948683e-05,3.0055645148112192e-05,5.815376050830386e-05,0.00015293085042541218
2.2517182525007517e-05,3.0082621756571722e-05,5.817398684075771e-05,0.00015286389310927606
2.2514593888501228e-05,3.0108700083798154e-05,5.819343924661741e-05,0.00015279632474588764
2.2511755356155467e-05,3.01339254063979e-05,5.8213002211014954e-05,0.00015272794607497389
2.250915371890833e-05,3.015879787672688e-05,5.823412089595668e-05,0.00015265935232929256
2.2507454130719442e-05,3.018370125400108e-05,5.8257949458220495e-05,0.00015259120797016902
2.250702417689259e-05,3.0208299043675435e-05,5.8285476707183204e-05,0.00015252278408803632
2.250794409578502e-05,3.023219761453498e-05,5.83170471034797e-05,0.00015245294501161982
2.2509956829758194e-05,3.0255652069743234e-05,5.835180569107907e-05,0.00015238181203603148
2.2512450093415352e-05,3.0279242676875214e-05,5.838787213870434e-05,0.00015231009424318258
2.2514836086802573e-05,3.0302780439922546e-05,5.842334595043163e-05,0.00015223810327808044
2.2517241246355766e-05,3.0326081234955283e-05,5.845721893378514e-05,0.00015216567426007974
2.252037604699193e-05,3.0350582241714778e-05,5.848947121442563e-05,0.0001520921157898271
2.2524562334593034e-05,3.0378065202487035e-05,5.852066260099198e-05,0.00015201666045456372
2.25292416753962e-05,3.0408893270617994e-05,5.855153462973234e-05,0.00015193949457028297
2.2533726373857428e-05,3.044201900203586e-05,5.858246146250405e-05,0.0001518616444898046
2.253801037254069e-05,3.047574198935504e-05,5.861280047215822e-05,0.00015178390588955652
2.254217522707071e-05,3.0508740843743502e-05,5.864170834678084e-05,0.00015170635090819694
2.254599098518633e-05,3.054055825203182e-05,5.866945385594588e-05,0.00015162866563312794
2.2549475515134657e-05,3.0571224897683934e-05,5.869654148605993e-05,0.00015155060504318488
2.2552818035172157e-05,3.060088581847676e-05,5.872264487971323e-05,0.00015147189615132193
2.2555919112773866e-05,3.062988182295623e-05,5.874710132424787e-05,0.000151392117376942
2.2558465562357295e-05,3.0658793998618295e-05,5.876946775242988e-05,0.00015131104535464013
2.2560223232154703e-05,3.068793565790223e-05,5.8789565573773194e-05,0.00015122906293814505
2.256119548673626e-05,3.0716965017854575e-05,5.880748642659604e-05,0.00015114697770324644
2.2561604440658623e-05,3.0746051556333015e-05,5.8823452483297435e-05,0.00015106521065921902
2.2561621775343404e-05,3.077669800449991e-05,5.883746320781037e-05,0.0001509831297358873
2.2561158018888752e-05,3.081010444657409e-05,5.884956253443739e-05,0.00015089947799898641
2.256022986844277e-05,3.0845692077438964e-05,5.886032449151991e-05,0.00015081369764172498
2.255926710309487e-05,3.0881723343982684e-05,5.887054756668868e-05,0.00015072660942031093
2.2558688816765308e-05,3.0917001461762185e-05,5.8880845672912576e-05,0.0001506396625894555
2.255855981497725e-05,3.0951528407585674e-05,5.8891681729264324e-05,0.00015055424606803258
2.2558591864407392e-05,3.0985855225016154e-05,5.89034207154549e-05,0.00015047127230390856
2.2558342260160503e-05,3.1020942967784624e-05,5.891603053124375e-05,0.00015039035720660861
2.2557666895319087e-05,3.1057833877392786e-05,5.892844993558294e-05,0.00015031043490911625
2.2556710451323404e-05,3.109652523924248e-05,5.8939900791876785e-05,0.00015023076492560024
2.255549822493451e-05,3.113580039234284e-05,5.8951613571738155e-05,0.0001501504499639835
2.255391544781458e-05,3.117506584743113e-05,5.896490721747095e-05,0.00015006843999339076
2.2551876319714427e-05,3.121529990798442e-05,5.897917064028813e-05,0.00014998440611853876
2.254935849128934e-05,3.125713953268728e-05,5.8992968446983814e-05,0.00014989878683892546
2.2546442696305338e-05,3.1299621610096566e-05,5.9005909330333635e-05,0.0001498120336211879
2.2543342669154673e-05,3.1341584634358425e-05,5.901821080067231e-05,0.00014972403672500114
2.2540278615335475e-05,3.1383004522079747e-05,5.902943169575235e-05,0.00014963415889975452
2.2537294775563186e-05,3.142406126974676e-05,5.903911383622612e-05,0.00014954249955010662
2.2534276640866063e-05,3.146451962947222e-05,5.904710573666322e-05,0.00014945087302225591
2.2531083447536917e-05,3.150473866049862e-05,5.905341194128057e-05,0.0001493612492201915
2.2527522203130506e-05,3.154550048066257e-05,5.905845612752689e-05,0.00014927356332767558
2.2523387432726063e-05,3.1586476960304916e-05,5.906243963216575e-05,0.00014918607776931726
2.251863366445584e-05,3.16271188709791e-05,5.9065046135235624e-05,0.00014909753997851112
2.2513286877087345e-05,3.166854768337991e-05,5.9066407271968456e-05,0.00014900812608459148
2.2507439833005398e-05,3.171228500199441e-05,5.906738826009833e-05,0.00014891889592920303
2.2501530951656746e-05,3.1758956047434114e-05,5.906862094276338e-05,0.00014883097941275695
2.2496182052331184e-05,3.1808657215516436e-05,5.907002417345906e-05,0.00014874471210657043
2.2491527825421037e-05,3.186091136191032e-05,5.907113373019969e-05,0.00014865928789238958
2.248703845044637e-05,3.1914487005162834e-05,5.907136499738115e-05,0.00014857343894054812
2.2482367752277153e-05,3.1967931866708216e-05,5.9070135815951125e-05,0.00014848627547864332
2.247779184040583e-05,3.2020385592324944e-05,5.906729245794609e-05,0.0001483974503252658
2.24734411212862e-05,3.2072473153367364e-05,5.906316853927857e-05,0.00014830704265021298
2.246896000576054e-05,3.212702712838726e-05,5.905778830938658e-05,0.000148216222139326
2.2464145995114327e-05,3.21878487196466e-05,5.905072147521249e-05,0.00014812728575664403
2.2459157638687348e-05,3.225683865494781e-05,5.904160579534762e-05,0.00014804180777612793
2.245389732973601e-05,3.233245192025459e-05,5.903037987244897e-05,0.0001479601165350091
2.2448179385994214e-05,3.241100380966675e-05,5.901733362869703e-05,0.00014788230434517236
2.2442328212093293e-05,3.2489354132153466e-05,5.900299644280635e-05,0.00014780800176899836
2.24367097238329e-05,3.256621119396729e-05,5.898791917210842e-05,0.00014773588926345256
2.2431271768199893e-05,3.2641352406459355e-05,5.8972588691793484e-05,0.00014766412310680458
2.2425722157627178e-05,3.2714753367734196e-05,5.895747286401379e-05,0.00014759076732638512
2.2419740428621888e-05,3.2786625917736844e-05,5.8943105698424745e-05,0.00014751411574389877
2.2413106614574733e-05,3.2857350735467275e-05,5.893007599898616e-05,0.00014743338913928607
2.2405793893600155e-05,3.2927058488062875e-05,5.891866355442062e-05,0.00014734898875903163
2.2397944060917405e-05,3.299553210491444e-05,5.890837099915182e-05,0.00014726214107236668
2.2389704649064347e-05,3.306250752064025e-05,5.889794992771817e-05,0.00014717430369250376
2.2381102496029003e-05,3.312791894613302e-05,5.888639224825234e-05,0.00014708635071107424
2.237210872801937e-05,3.319181351032438e-05,5.8873928417639626e-05,0.00014699822820625133
2.2362805082016783e-05,3.3254147869995894e-05,5.886139742487686e-05,0.00014690956708093776
2.2353356710845965e-05,3.331497110507023e-05,5.884904519136878e-05,0.00014682060941175414
2.2343811916850273e-05,3.337477895513626e-05,5.883642874256884e-05,0.00014673218842825824
2.2333990711459726e-05,3.34344407046793e-05,5.882312895108577e-05,0.00014664480609569237
2.2323647343495095e-05,3.349473352985732e-05,5.8809217498797895e-05,0.00014655818004775522
2.2312665945097873e-05,3.355590826149693e-05,5.879488751793083e-05,0.00014647183148781386
2.230103163205777e-05,3.3617685400557734e-05,5.877994349504721e-05,0.00014638538313478777
2.228880865523853e-05,3.3679462831241344e-05,5.876394116156527e-05,0.00014629781478598972
2.2276094085998027e-05,3.374058241999648e-05,5.8746457827082794e-05,0.00014620733248283836
2.226297084012048e-05,3.380073942805185e-05,5.872732383228867e-05,0.000146112901474524
2.224951033546677e-05,3.3860246766479854e-05,5.870700345071954e-05,0.00014601481107533203
2.2235734199222133e-05,3.3919977343013504e-05,5.8686446191355815e-05,0.00014591336578317739
2.2221706366377627e-05,3.3980785244859e-05,5.8666566760868465e-05,0.00014580910176329587
2.2207616874319718e-05,3.4042631186355295e-05,5.864790912269341e-05,0.00014570352530309365
2.2193580031451955e-05,3.410440759345092e-05,5.8630597953414315e-05,0.00014559831546521356
2.2179424634841533e-05,3.4165355514876594e-05,5.861469640293289e-05,0.00014549449066058928
2.216484814822531e-05,3.422600532422468e-05,5.8600491171753004e-05,0.00014539203156657362
2.214974310392662e-05,3.4286803924274126e-05,5.858819731054385e-05,0.0001452904623640036
2.2134228608532378e-05,3.4347113910840675e-05,5.857742978903843e-05,0.00014518959547878222
2.2118412631923822e-05,3.440626217669294e-05,5.856709581145144e-05,0.00014508917896593045
2.2102276221347877e-05,3.446450673378404e-05,5.855582647407891e-05,0.00014498878716804069
2.208573161564857e-05,3.4522390887996226e-05,5.8542770013167774e-05,0.00014488838138987405
2.206871779642532e-05,3.4580231094299734e-05,5.852780445576212e-05,0.00014478794411348992
2.205123979728053e-05,3.463846223011954e-05,5.8510968747130726e-05,0.00014468685816314874
2.2033299857629538e-05,3.4697569215615015e-05,5.8492385324081556e-05,0.00014458446731261063
2.2014844343744278e-05,3.4757386661762625e-05,5.847225393775548e-05,0.00014448102504109196
2.1995905652304407e-05,3.481682383838937e-05,5.845052440615082e-05,0.00014437778503741667
2.1976703160824974e-05,3.487483911571276e-05,5.842695701266712e-05,0.00014427601000129286
2.1957464054205832e-05,3.49316427150096e-05,5.8401488611573624e-05,0.00014417594200915047
2.193822906180076e-05,3.498862676227557e-05,5.837441108597667e-05,0.00014407665821941358
2.19188082532589e-05,3.5046860614894795e-05,5.834594674788598e-05,0.00014397669458747917
2.1898957386962893e-05,3.510574622783964e-05,5.831600288118149e-05,0.00014387501164549055
2.1878593247548054e-05,3.516406114834904e-05,5.828466260166469e-05,0.00014377189490233534
2.1857734204794456e-05,3.522182151127765e-05,5.825225677414503e-05,0.00014366882498687093
2.1836519174195767e-05,3.5280000580771075e-05,5.821893866888793e-05,0.0001435673025808796
2.1815205920105224e-05,3.533977536456079e-05,5.818476684928222e-05,0.00014346805877896876
2.1793816725217638e-05,3.5402461538593325e-05,5.814977571517044e-05,0.00014337140073178352
2.1772378541510713e-05,3.546902745804294e-05,5.811389452058214e-05,0.0001432781589203264
2.1751258573001836e-05,3.553944652837682e-05,5.8077696894517144e-05,0.00014319035947494137
2.1730562510135626e-05,3.561266461664357e-05,5.804246524617186e-05,0.00014310974375966433
2.170997594657509e-05,3.5687155664998394e-05,5.8008748834967265e-05,0.00014303495164099889
2.1689295121251152e-05,3.576154963725861e-05,5.797587701654146e-05,0.00014296231657939825
2.166857201012701e-05,3.5835101365166916e-05,5.794278628345623e-05,0.00014288932411601053
2.1647892567020692e-05,3.59077571498359e-05,5.790861370000438e-05,0.000142815841963994
2.1627184997813917e-05,3.597973388379957e-05,5.787302804438967e-05,0.00014274279839028697
2.160621095536978e-05,3.605109140139763e-05,5.7836787947785185e-05,0.0001426698535403595
2.1584749612975034e-05,3.612165732284252e-05,5.780189835914794e-05,0.00014259525815278485
2.1562766856085354e-05,3.619106659063899e-05,5.777070783476087e-05,0.0001425180114669331
2.1540362737609783e-05,3.625899030587111e-05,5.7744482710274416e-05,0.0001424378293023691
2.151772618431579e-05,3.632560055500224e-05,5.772263865212737e-05,0.00014235496688338258
2.149515887959309e-05,3.6391534774832806e-05,5.770340050289604e-05,0.00014227094685192516
2.1472936565866748e-05,3.6457480080689415e-05,5.76851653739528e-05,0.0001421869868178266
2.145101456097567e-05,3.652406347295858e-05,5.766727063533954e-05,0.00014210317378367439
2.1428983944215417e-05,3.659177618135697e-05,5.765005726851594e-05,0.00014201945909445606
2.1406467506253065e-05,3.6660691465341824e-05,5.763434679219794e-05,0.00014193611976048417
2.1383403682459095e-05,3.67303604046402e-05,5.762015455051278e-05,0.00014185365538689563
2.136006034836488e-05,3.680014498135973e-05,5.760606005173148e-05,0.00014177239513177127
2.1337055522914065e-05,3.686962218986575e-05,5.759066213561624e-05,0.0001416922790784874
2.131518813886149e-05,3.6938529511236884e-05,5.757356235619557e-05,0.0001416129697335218
2.1295132505597483e-05,3.7006459927332694e-05,5.755481165018327e-05,0.00014153397009126193
2.127725509191136e-05,3.707288978092537e-05,5.753501355724425e-05,0.00014145462082869263
2.1261459293753693e-05,3.713765105994716e-05,5.751532574986239e-05,0.0001413742125799392
2.1247048840372984e-05,3.7201139352180686e-05,5.749700467282777e-05,0.00014129223775162625
2.1233108907826782e-05,3.7263737515035105e-05,5.748079742822873e-05,0.00014120848993311213
2.1219436255683398e-05,3.7325210988063994e-05,5.746582643008412e-05,0.00014112285754859586
2.1206629392701832e-05,3.738520386217978e-05,5.745068842118566e-05,0.00014103549088193386
2.1195251186817656e-05,3.7443936059821086e-05,5.743568917087536e-05,0.00014094686138340542
2.1185541211840407e-05,3.750169067750762e-05,5.7421710414617925e-05,0.0001408569503290041
2.1177539528279252e-05,3.7558393843686175e-05,5.7408459321520214e-05,0.00014076552862857128
2.117102437719979e-05,3.761388514769642e-05,5.739506254289027e-05,0.0001406729706331145
2.116548872772037e-05,3.7667920315968396e-05,5.738104885575314e-05,0.0001405798251249744
2.116027488123253e-05,3.7720375774185434e-05,5.7366474416842914e-05,0.0001404865805629833
2.1154787961911513e-05,3.7771604413607124e-05,5.735149936140563e-05,0.00014039390486567392
2.114869729039922e-05,3.78219802000326e-05,5.7336135345239344e-05,0.0001403023468451949
2.1141961537139064e-05,3.7871399657796756e-05,5.7320240685244474e-05,0.0001402120189063955
2.1134591670820202e-05,3.7919437232052356e-05,5.73035758785849e-05,0.00014012264401211212
2.112661587784026e-05,3.796583875049385e-05,5.728598839025373e-05,0.0001400333360156902
2.111825126171188e-05,3.801074788930315e-05,5.726761002797794e-05,0.00013994286217836123
2.1109813310500257e-05,3.80542353715826e-05,5.7248657548958416e-05,0.0001398504795130007
2.1101614805782e-05,3.809618346144404e-05,5.722902962186113e-05,0.00013975611135826278
2.1093975761314246e-05,3.813664110335086e-05,5.720836397685909e-05,0.0001396600319609085
2.1087153083923508e-05,3.817568723055007e-05,5.718647733487231e-05,0.00013956250948269884
2.1081243576428118e-05,3.821350913612595e-05,5.716366345003525e-05,0.00013946337334229218
2.1076093661723704e-05,3.825052660965168e-05,5.714053529523903e-05,0.00013936188582754427
2.107115736593421e-05,3.828667411176409e-05,5.7117440473161765e-05,0.00013925740028072458
2.106616225331264e-05,3.832146230865739e-05,5.709413223884616e-05,0.00013915026489943796
2.1061938370743935e-05,3.8354690749717616e-05,5.7070066946487403e-05,0.00013904194107891327
2.1059666371348813e-05,3.838655469983951e-05,5.704493704753887e-05,0.00013893404335012176
2.1059964481895106e-05,3.841767678269569e-05,5.70190136331569e-05,0.00013882741447883543
2.1062770595725067e-05,3.8448797527850884e-05,5.699291836971015e-05,0.0001387220993036931
2.106737934458416e-05,3.848039305881056e-05,5.696719051817605e-05,0.00013861761242395294
2.107262921069337e-05,3.8512587440750015e-05,5.6942120915331876e-05,0.00013851344043408766
2.1077837737274263e-05,3.85450346195425e-05,5.6917565546128805e-05,0.00013841025163943756
2.1083660029620305e-05,3.8576972458564735e-05,5.689297943387535e-05,0.00013830970986706696
2.1091272233025712e-05,3.8607632542711276e-05,5.686786727794632e-05,0.0001382121984281743
2.1101379432427135e-05,3.8636738463172326e-05,5.684188073558929e-05,0.00013811660667927564
2.1114176626254612e-05,3.866474952495023e-05,5.681470301966187e-05,0.00013802210990050774
2.1129432664836254e-05,3.869292032183251e-05,5.678661540618077e-05,0.0001379284790231627
2.1146428275026348e-05,3.8722839006480325e-05,5.6758898484850825e-05,0.00013783546208061316
2.1164020484377072e-05,3.8755261575635756e-05,5.673331702926423e-05,0.00013774237147978557
2.1181334337262586e-05,3.8789363508826885e-05,5.6711470101081495e-05,0.00013764801895617152
2.1198423105750427e-05,3.882347776145288e-05,5.669424131199066e-05,0.00013755150482993282
2.1215905535267314e-05,3.885682765984936e-05,5.668148105757289e-05,0.00013745321829815128
2.1234354848667513e-05,3.8890120366707346e-05,5.66722820609034e-05,0.0001373545706734142
2.12540826896848e-05,3.892451256178662e-05,5.666553801342996e-05,0.00013725708993925855
2.127511922878876e-05,3.896092253539033e-05,5.66602447134347e-05,0.0001371617575975515
2.1297342967753863e-05,3.899996723612761e-05,5.665537000418181e-05,0.0001370684445423969
2.1320583804998233e-05,3.9041765282204104e-05,5.664997977497723e-05,0.000136976008746742
2.134452718536475e-05,3.9085547368417386e-05,5.664455088564783e-05,0.00013688331026069636
2.1368507950746226e-05,3.912994647002086e-05,5.6641222501170444e-05,0.0001367902075051506
2.1392016827433477e-05,3.917502902324183e-05,5.664127317666867e-05,0.00013669752911214954
2.1415228864918574e-05,3.922277284736942e-05,5.66436145057504e-05,0.0001366063183886617
2.1438189743564936e-05,3.9274182236661515e-05,5.6646253857860534e-05,0.00013651715680419504
2.1460618238724613e-05,3.932786918327607e-05,5.664802600399069e-05,0.000136429979977619
2.14825679613647e-05,3.938167899666355e-05,5.6648564310683005e-05,0.00013634427038051994
2.150406845298792e-05,3.9434530327848045e-05,5.664767877110039e-05,0.00013625922680203664
2.1524877190397453e-05,3.948674424748534e-05,5.6645897442093306e-05,0.00013617372637074763
2.15448865394685e-05,3.95388420145122e-05,5.6644649563819964e-05,0.0001360862148790587
2.156413859273939e-05,3.9590364237749925e-05,5.664487816302868e-05,0.00013599514784384977
2.1582662081746206e-05,3.964053833224991e-05,5.66460875729442e-05,0.00013590065576843952
2.16005845434842e-05,3.968919789921511e-05,5.6646840092243254e-05,0.0001358050586640826
2.1618219384691883e-05,3.973660663063916e-05,5.664591782385094e-05,0.00013571020779898715
2.1635908825999428e-05,3.978347647710678e-05,5.664311109164941e-05,0.00013561571122247136
2.1653841644589933e-05,3.983046274799627e-05,5.66390642046243e-05,0.0001355201851836639
2.1672014645506347e-05,3.987770559922249e-05,5.66345556796305e-05,0.0001354229443196741
2.1690290841426325e-05,3.9925038967923657e-05,5.662965029776757e-05,0.00013532470050324963
2.170847780220421e-05,3.99719921285297e-05,5.662371628054129e-05,0.0001352266952151475
2.1726377846254232e-05,4.0017916265362824e-05,5.661651729329111e-05,0.00013512908048545524
2.1743790613784037e-05,4.006237030610354e-05,5.660846752103348e-05,0.00013503087962204286
2.1760483190003713e-05,4.010531593571665e-05,5.659964682618237e-05,0.0001349314881890144
2.1776264200838845e-05,4.014688841941634e-05,5.658949186863432e-05,0.00013483120335827545
2.1791105238427834e-05,4.018714405442567e-05,5.6577558643495806e-05,0.00013473060889074797
2.180506837320842e-05,4.0226095010173744e-05,5.6563997401213304e-05,0.0001346300309124793
2.181818385216331e-05,4.0263776818868465e-05,5.654933173595664e-05,0.0001345293000789086
2.183056703243804e-05,4.0300209982608135e-05,5.653424975292075e-05,0.00013442808560944485
2.1842576061587712e-05,4.033549403354318e-05,5.651941999635386e-05,0.00013432648589038054
2.1854671030837884e-05,4.036992596678071e-05,5.650517774141674e-05,0.00013422505227969465
2.1867120023388244e-05,4.04038195647019e-05,5.6491476542382146e-05,0.00013412417092553835
2.1879794721542438e-05,4.0437166818968333e-05,5.647814975750375e-05,0.00013402366587732215
2.1892187900901855e-05,4.0469507215288286e-05,5.646460575658392e-05,0.0001339231853497043
2.1903890302708076e-05,4.050069403356337e-05,5.645070973544255e-05,0.00013382286232382234
2.1914931300681244e-05,4.053171236873212e-05,5.643863201906167e-05,0.0001337230719415102
2.192543034347998e-05,4.0564012710010676e-05,5.6431284622353933e-05,0.00013362346200027355
2.1935419555794646e-05,4.059857828506818e-05,5.642955277084146e-05,0.00013352286546499425
2.194506486231283e-05,4.06355809944795e-05,5.643192625987251e-05,0.00013342030954644979
2.1954675687989223e-05,4.0674131411767844e-05,5.643559789234137e-05,0.0001333157052280242
2.196442640331971e-05,4.0712611706380006e-05,5.643861663305346e-05,0.00013320995864063935
2.1974093672571873e-05,4.0749985009924956e-05,5.6441409004819566e-05,0.00013310428410280136
2.1983356367128772e-05,4.078623066007386e-05,5.644593113578496e-05,0.0001329989033081634
2.199239308071203e-05,4.082125487552129e-05,5.645464257588918e-05,0.0001328935580964165
2.2001761349453807e-05,4.085488153252009e-05,5.6470036345022884e-05,0.0001327886540134729
2.201185081016754e-05,4.088741779431962e-05,5.649333047076604e-05,0.00013268468383786174
2.2022714913521784e-05,4.091921081563894e-05,5.65232474585071e-05,0.00013258172385265533
2.2034101932849374e-05,4.0950314361923184e-05,5.655645757787928e-05,0.00013247969693005933
2.2045434283864417e-05,4.098043801085467e-05,5.658964345403695e-05,0.00013237825977489422
2.20563407696042e-05,4.1009297384088946e-05,5.6621365035217764e-05,0.0001322768151639823
2.2067265620948844e-05,4.10371706394984e-05,5.6651808168793474e-05,0.0001321751576519688
2.207894078239197e-05,4.1064336929252244e-05,5.668138684713641e-05,0.00013207352471701208
2.2091746203822856e-05,4.1090564240891485e-05,5.671029750467273e-05,0.00013197206899012804
2.2105631138096856e-05,4.1115929554573636e-05,5.6738701960136574e-05,0.00013187064304922134
2.2120087714775803e-05,4.114114324650067e-05,5.676675531222433e-05,0.00013176897517480564
2.2134348594252207e-05,4.116669782495967e-05,5.6794478717932664e-05,0.00013166717698909658
2.2147885001356663e-05,4.11923568178168e-05,5.6821596210020905e-05,0.0001315659610025254
2.216061729974622e-05,4.1217404657369606e-05,5.6847538434272686e-05,0.00013146600991657088
2.2172570078192305e-05,4.124165034288741e-05,5.6871745911588977e-05,0.000131367210248121
2.218369754189418e-05,4.126591637867026e-05,5.689448993106787e-05,0.0001312686844376806
2.219405400856438e-05,4.1290827691198456e-05,5.691720027528105e-05,0.00013116916381029502
2.2203834441820387e-05,4.131580282003751e-05,5.6941253473486194e-05,0.00013106739118370802
2.221326787510109e-05,4.134006153353984e-05,5.69668965756013e-05,0.00013096301056865408
2.222241458911215e-05,4.1363982629481076e-05,5.699352411257407e-05,0.00013085735281936957
2.2231072570278614e-05,4.1388391620699124e-05,5.7020444775577764e-05,0.000130752688989848
2.223913653156193e-05,4.141345652576676e-05,5.704738443231577e-05,0.00013065033524872025
2.224680336893891e-05,4.143889889853132e-05,5.7074483286598054e-05,0.0001305496876824302
2.2254240975875414e-05,4.1464326286558076e-05,5.710188364282959e-05,0.0001304494022683515
2.2261399021174865e-05,4.1489161697653465e-05,5.712909926560647e-05,0.00013034862705775345
2.226805212582709e-05,4.151323180649745e-05,5.715538588606583e-05,0.00013024637554298987
2.2273988736172046e-05,4.15369748726505e-05,5.7181175684037766e-05,0.00013014169795259637
2.2279196153220858e-05,4.1560314693102294e-05,5.720787803537815e-05,0.00013003490802827774
2.2283693125625322e-05,4.158328840145399e-05,5.723624704829509e-05,0.00012992723187088594
2.228758172804764e-05,4.160712469757107e-05,5.72658346154266e-05,0.00012981951937087382
2.2291263349809164e-05,4.163270187777117e-05,5.7295390880376955e-05,0.0001297116708097431
2.2295058294656207e-05,4.165907135422774e-05,5.732395982391036e-05,0.00012960316956684418
2.229878797393446e-05,4.168574870628879e-05,5.7352423889812054e-05,0.00012949433253065822
2.230246444107107e-05,4.17153349684109e-05,5.7383254100523476e-05,0.00012938689128660197
2.2306911699191835e-05,4.175095676768343e-05,5.7418520000039635e-05,0.00012928272398115228
2.231286467102983e-05,4.1793193645774984e-05,5.7458741339126295e-05,0.0001291824412585809
2.2320204740983485e-05,4.184047682383485e-05,5.7503058645395846e-05,0.00012908547764250137
2.2328166709109716e-05,4.1890618397529805e-05,5.754948578049447e-05,0.0001289909263910277
2.2335946980046454e-05,4.194180298291531e-05,5.759594808332434e-05,0.0001288981397889251
2.2343364571324745e-05,4.1992611302236336e-05,5.7642200975708855e-05,0.00012880654118938676
2.2350799004080717e-05,4.204220197860358e-05,5.7689156023624355e-05,0.0001287148544949668
2.2358729066250068e-05,4.2090665265974706e-05,5.77362878330108e-05,0.0001286211600374996
2.236754120635205e-05,4.2138299795984074e-05,5.778227319298981e-05,0.0001285243339747841
2.2377391907718313e-05,4.2184894136830096e-05,5.7826815437373615e-05,0.00012842436761922171
2.2388070128692787e-05,4.223005900239741e-05,5.786973398561635e-05,0.00012832228539430532
2.239906818318352e-05,4.227356910753939e-05,5.791057866072765e-05,0.0001282206573042962
2.2409820268205263e-05,4.231539513769485e-05,5.794916973470089e-05,0.00012812183681979475
2.241991127398122e-05,4.2355808210580983e-05,5.7985585146591034e-05,0.00012802639104765736
2.2429160143726688e-05,4.239536078854472e-05,5.802025118188341e-05,0.00012793403591839287
2.2437532570871683e-05,4.243456387020256e-05,5.805333887050179e-05,0.0001278441844772104
2.2445065933414008e-05,4.2473731228552086e-05,5.8084598907223e-05,0.00012775533507872156
2.2451968418635386e-05,4.2513212837918064e-05,5.811398407415613e-05,0.00012766533692365567
2.2458579472198298e-05,4.2553347038811e-05,5.8141625678197245e-05,0.0001275730529610998
2.2465187959289733e-05,4.2593839492121127e-05,5.8167377385189485e-05,0.00012747839070147444
2.2471900383815945e-05,4.263383940277479e-05,5.819106103295271e-05,0.00012738177291523312
2.2478599825785796e-05,4.267316888250719e-05,5.8212917389189155e-05,0.00012728478284995074
2.2485057468165927e-05,4.271231804222223e-05,5.8232999364636605e-05,0.0001271888247640977
2.249107950637607e-05,4.275096662530376e-05,5.825112529040966e-05,0.0001270940060954193
2.2496478091302857e-05,4.27883978656289e-05,5.826729449337084e-05,0.00012699995141474108
2.250127119482154e-05,4.282472762495906e-05,5.8281525659749114e-05,0.0001269065459542747
2.25060215282591e-05,4.2860278017083415e-05,5.829410692684283e-05,0.00012681414787817772
2.25113888778625e-05,4.289533308209488e-05,5.8305508888329335e-05,0.00012672281027979854
2.2517398798316755e-05,4.293076382966644e-05,5.831598007201011e-05,0.00012663186973224137
2.252347631938942e-05,4.29672935790696e-05,5.8325430665177756e-05,0.00012654062368986128
2.2529384425078973e-05,4.3004543010607504e-05,5.833334179009615e-05,0.00012644888907021231
2.2535805064327344e-05,4.304286229093427e-05,5.833932131743025e-05,0.00012635689024459004
2.2543629907951423e-05,4.3084260182756236e-05,5.834358361528939e-05,0.00012626488391081955
2.255305720024629e-05,4.312944714472685e-05,5.834621026902875e-05,0.00012617298452926776
2.2563262425641873e-05,4.317675891544427e-05,5.834701119761793e-05,0.00012608128877774832
2.2573417769942134e-05,4.322401872232373e-05,5.8346176109190504e-05,0.00012599023950848586
2.2583812101567126e-05,4.327027668285411e-05,5.834400201661434e-05,0.00012590058948268066
2.2595026730696845e-05,4.3315929306402225e-05,5.834065437492131e-05,0.00012581276070564756
2.2607249194065646e-05,4.3361141639635154e-05,5.8336481273148855e-05,0.00012572673840768352
2.2620653996878456e-05,4.340549408490896e-05,5.833208347068644e-05,0.00012564262788597848
2.2635497498613414e-05,4.34489255906645e-05,5.832789831632046e-05,0.0001255602820234706
2.2651886512495568e-05,4.349194853381198e-05,5.8323732382987946e-05,0.0001254781760795012
2.2669609158700573e-05,4.3535192894547255e-05,5.831889112176642e-05,0.00012539426607113122
2.2688144933491935e-05,4.3579048523147445e-05,5.8312643562660696e-05,0.0001253078094382571
2.270672125003842e-05,4.362353421914215e-05,5.830477451366375e-05,0.0001252187697111097
2.272474402353497e-05,4.36680849515916e-05,5.829575407448119e-05,0.00012512670154235585
2.2742167755558014e-05,4.371183881129291e-05,5.828620012116313e-05,0.0001250319044929689
2.2759001223757596e-05,4.37546295160881e-05,5.8276634655579523e-05,0.00012493613648688353
2.2775063886293023e-05,4.379698333431512e-05,5.8267547897610056e-05,0.00012484085023033707
2.279031577339086e-05,4.383910501183988e-05,5.82592739405872e-05,0.00012474633280095402
2.2804788682070736e-05,4.3880684648814814e-05,5.8251815484398814e-05,0.000124652505505664
2.2818420253411627e-05,4.392136355762719e-05,5.824465507996296e-05,0.00012455923104130745
2.2831224370988188e-05,4.3961076130135576e-05,5.823691476923959e-05,0.00012446655993351277
2.2843430452054956e-05,4.400016214986686e-05,5.822797756067266e-05,0.00012437518410962948
2.2855234447773905e-05,4.4039121442487885e-05,5.8217875067493735e-05,0.0001242858597794624
2.2866530073148994e-05,4.4078321005706066e-05,5.820706091582856e-05,0.0001241984551546126
2.287723825919606e-05,4.4118006471118244e-05,5.819614983342777e-05,0.00012411184604711067
2.2887538815646952e-05,4.4158259924140316e-05,5.818589164859785e-05,0.0001240244123174248
2.2897444744918022e-05,4.419871316328237e-05,5.817698190784966e-05,0.00012393503748754916
2.290670255482811e-05,4.423860240052491e-05,5.816979027192462e-05,0.00012384397237207023
2.2915151065158196e-05,4.427718610742092e-05,5.8164293069372306e-05,0.00012375234657927887
2.2922797923380267e-05,4.4314143890038505e-05,5.816014186589116e-05,0.0001236607564344649
2.2929713952558874e-05,4.435006410671021e-05,5.8156681365669395e-05,0.00012356890870819773
2.2936064790793955e-05,4.438652653360679e-05,5.815285483997746e-05,0.00012347653403979098
2.2942061920303955e-05,4.442530546741215e-05,5.81476177472632e-05,0.0001233839589796539
2.294779185974195e-05,4.44677029974304e-05,5.8140633937024595e-05,0.00012329188800594876
2.2953109044185166e-05,4.4514681868194016e-05,5.813213198052924e-05,0.00012320102821677188
2.2957910793920793e-05,4.4566645289757467e-05,5.8122235702518074e-05,0.00012311155291536992
2.2962519707740464e-05,4.4622325891791865e-05,5.8110740050128753e-05,0.00012302257318023085
2.2967217867770813e-05,4.467934015498158e-05,5.809748498016333e-05,0.00012293242434403443
2.2971699624345474e-05,4.473711707506584e-05,5.8082451704591216e-05,0.00012284026026077092
2.2975569498103446e-05,4.479700285098226e-05,5.8065830877966615e-05,0.000122746852378817
2.2978745299528706e-05,4.485910527027622e-05,5.804817960338403e-05,0.00012265291968372252
2.2981186624917027e-05,4.492151520615908e-05,5.802953581252034e-05,0.0001225582489346806
2.2982867396705014e-05,4.49826565009306e-05,5.800960499943509e-05,0.00012246287224626946
2.298386338416458e-05,4.5042553916610205e-05,5.798888632567205e-05,0.0001223680089095994
2.2984433968959464e-05,4.510129709795834e-05,5.796791999534935e-05,0.00012227577454515802
2.2985132652313017e-05,4.5158470448591965e-05,5.794655378122486e-05,0.00012218762845875265
2.2986527597895327e-05,4.5214194412682145e-05,5.792430789029692e-05,0.00012210314829817957
2.2988810780237064e-05,4.5269180847420565e-05,5.790068862589974e-05,0.00012202100066547718
2.2991726988395136e-05,4.532424805216074e-05,5.7875425775566826e-05,0.00012194073233733536
2.299466025769188e-05,4.537995013296158e-05,5.784840532704483e-05,0.00012186267161875874
2.2997305842014834e-05,4.5436237450102715e-05,5.781996932587672e-05,0.00012178681025082339
2.3000177713849818e-05,4.5492494308415425e-05,5.779182521831831e-05,0.00012171258011778361
2.3003580008152865e-05,4.554798665709752e-05,5.776671766412258e-05,0.0001216392994150199
2.300705953942682e-05,4.560221108994148e-05,5.774647519470057e-05,0.00012156655848363764
2.3010444017722914e-05,4.565478314219397e-05,5.773013109754609e-05,0.00012149421959424101
2.3014364148460995e-05,4.570562076029196e-05,5.77152580427358e-05,0.00012142207586652345
2.3019637857249805e-05,4.5755183156719275e-05,5.770152145174362e-05,0.00012134928749915496
2.302667939023673e-05,4.580352157735366e-05,5.7690539270811205e-05,0.0001212743751783448
2.30351919354282e-05,4.585032194559117e-05,5.76834308589491e-05,0.00012119618957360468
2.304418734455193e-05,4.589567158748547e-05,5.768067743136507e-05,0.0001211147550624856
2.305286097095193e-05,4.593969334493827e-05,5.768304781488836e-05,0.00012103097662025943
2.306134935520841e-05,4.598270326875689e-05,5.769156331116781e-05,0.00012094579324194591
2.3070367335758966e-05,4.60249485660938e-05,5.7706702763014245e-05,0.00012085975554695844
2.3080804386483192e-05,4.606606580893663e-05,5.7727747924609505e-05,0.00012077294520547934
2.3093521031884335e-05,4.6106072326358026e-05,5.775288556508847e-05,0.00012068499550929308
2.3108771253398673e-05,4.61458140162877e-05,5.7780173690698935e-05,0.00012059594511701137
2.31259184363526e-05,4.618563338733848e-05,5.780864469561971e-05,0.00012050667756253284
2.3143921901702383e-05,4.6224920166194756e-05,5.78384816458424e-05,0.00012041759924469795
2.3161992990933756e-05,4.626368019742495e-05,5.787023114891813e-05,0.00012032841157670356
2.3179728603849413e-05,4.6303048585030666e-05,5.790391058372943e-05,0.00012023911787744714
2.3196838261081665e-05,4.6343781697104554e-05,5.7938850070207564e-05,0.00012014983535201738
2.32131143149476e-05,4.6385566411633955e-05,5.797435014346252e-05,0.0001200602956134254
2.3228621110806584e-05,4.642750736409615e-05,5.8010211968458704e-05,0.00011996984423049522
2.3243564685009856e-05,4.646849750841287e-05,5.8046452892384713e-05,0.00011987767763891523
2.3258041370224907e-05,4.650793995962363e-05,5.8082770827941526e-05,0.00011978370910622563
2.327196287522743e-05,4.6545993723176394e-05,5.8118464512457567e-05,0.00011968932189746532
2.3285143414074648e-05,4.65827554509061e-05,5.815261758553229e-05,0.00011959631695906941
2.329753404781843e-05,4.6618388520087745e-05,5.818477688473665e-05,0.00011950540436988813
2.3309365399428993e-05,4.665326512506323e-05,5.8215518765897756e-05,0.00011941626005319788
2.3320930047350854e-05,4.668708656290829e-05,5.8245618632152214e-05,0.00011932827231142094
2.3332209711460504e-05,4.67192210656188e-05,5.8275078158425993e-05,0.00011924076692924909
2.33428823660363e-05,4.674950000830134e-05,5.83032878115862e-05,0.00011915297318427957
2.3352704697658818e-05,4.6777959149079126e-05,5.8330147516896436e-05,0.00011906430228120718
2.336163804575683e-05,4.6804745604750725e-05,5.835648476225192e-05,0.00011897455942467281
2.3369667329184566e-05,4.6830378153946284e-05,5.8383006054636366e-05,0.00011888381911168045
2.3376759096836375e-05,4.6855584615236434e-05,5.840969562071965e-05,0.00011879249369630644
2.3382916985106036e-05,4.688082667422269e-05,5.843595593594439e-05,0.00011870157323254864
2.33882072081807e-05,4.6905990830185584e-05,5.846086767534538e-05,0.00011861216762267204
2.3392753035148393e-05,4.69305276842082e-05,5.848400318438322e-05,0.0001185244896837334
2.3396705890894075e-05,4.695380820769532e-05,5.850580800337946e-05,0.00011843721896133765
2.3400201329132493e-05,4.6975507620941595e-05,5.852674126895478e-05,0.00011834839557775974
2.3403290233940386e-05,4.699593323589271e-05,5.854672221932361e-05,0.00011825693241670995
2.3405877897543293e-05,4.701575860210889e-05,5.8565408137121924e-05,0.00011816329901214096
2.340783173595066e-05,4.703523630349327e-05,5.858251520421857e-05,0.00011806954106635039
2.340925264048261e-05,4.705384869748984e-05,5.859797281938477e-05,0.00011797751350065289
2.3410390112995233e-05,4.707108168349608e-05,5.86119604312015e-05,0.0001178874986301493
2.3411248175947884e-05,4.708727695358824e-05,5.8624913041968826e-05,0.00011779917632543787
2.341157619075153e-05,4.710306582051176e-05,5.863756609971672e-05,0.00011771241721496844
2.341119016919816e-05,4.711823702174871e-05,5.865094372288801e-05,0.00011762742105096291
2.3410118377195813e-05,4.713247704730884e-05,5.8666117282388185e-05,0.00011754452239746272
2.34085321603768e-05,4.7146827619246266e-05,5.868385293206027e-05,0.00011746348770934047
2.3406661140082106e-05,4.716277303884026e-05,5.870443185104989e-05,0.00011738359646443473
2.3404659099035588e-05,4.718079179982907e-05,5.872773200792292e-05,0.00011730462378511689
2.340235984414092e-05,4.7200055106382425e-05,5.8753391789009775e-05,0.00011722672648735922
2.3399563479004742e-05,4.721914132589368e-05,5.8780955913918804e-05,0.00011714952648720562
2.3396572399971484e-05,4.723763678684335e-05,5.8810086431614444e-05,0.00011707191817108513
2.3393936162339592e-05,4.7256370099059516e-05,5.884074365438226e-05,0.00011699237753525392
2.3392125353821503e-05,4.7276256215816344e-05,5.8872978852708756e-05,0.0001169097407616159
2.3391529818736538e-05,4.729777593044444e-05,5.89064090436238e-05,0.00011682358699973886
2.339217547258569e-05,4.732074941287705e-05,5.894010995602011e-05,0.00011673378918679115
2.3393410518992048e-05,4.734405065051713e-05,5.897313269610735e-05,0.00011664062742919713
2.3394626584324905e-05,4.7366432395902293e-05,5.900487752024371e-05,0.00011654553065016137
2.3396294544735313e-05,4.73875452705921e-05,5.9035125661081644e-05,0.0001164515056072774
2.3399435850723216e-05,4.7407370718758055e-05,5.906415992794444e-05,0.00011636179537033086
2.3404595649771004e-05,4.7425610510992754e-05,5.9092631849134364e-05,0.00011627737654837154
2.34116213318424e-05,4.744209912976855e-05,5.9120993035705366e-05,0.00011619649981442197
2.341981213453344e-05,4.745682645627128e-05,5.9149037920657634e-05,0.00011611637571948262
2.3428256648067358e-05,4.74697344250393e-05,5.917591281051853e-05,0.00011603464808047907
2.3436238834517593e-05,4.7480807227214156e-05,5.920071600579378e-05,0.0001159500531289512
2.3443533720364683e-05,4.7490265119883134e-05,5.922328186353176e-05,0.00011586328880744293
2.34502894373888e-05,4.7498754312530554e-05,5.924440382340948e-05,0.00011577673773620119
2.3456576405973157e-05,4.7506849276923915e-05,5.9265225828928815e-05,0.00011569180691653501
2.3462368693010997e-05,4.751444126047648e-05,5.9286230482578235e-05,0.00011560759000248809
2.3467897368627178e-05,4.7521016997358735e-05,5.930674349643009e-05,0.00011552216864803592
2.347362746305518e-05,4.7526254474639845e-05,5.932568663665519e-05,0.0001154343024246228
2.347980265765448e-05,4.753005114847014e-05,5.934256337736263e-05,0.00011534487749135887
2.348616977617677e-05,4.753236433777381e-05,5.935724783684214e-05,0.00011525684333538756
2.349224104396756e-05,4.7533512854924815e-05,5.936962441708932e-05,0.00011517301671784349
2.349773226668088e-05,4.753402125105845e-05,5.9379807446753606e-05,0.00011509430132116675
2.3502689833610427e-05,4.753387044105486e-05,5.938820990184121e-05,0.00011502001138900247
2.3507235192497182e-05,4.753327613974894e-05,5.939543260246289e-05,0.00011494852444588261
2.3511270032749964e-05,4.7533608628364585e-05,5.940188782466586e-05,0.00011487737201518547
2.3514579915338415e-05,4.753581972305799e-05,5.940733189517599e-05,0.00011480436488664117
2.351712561209828e-05,4.753917055835619e-05,5.9411125624312504e-05,0.00011472868125212477
2.3518995631351023e-05,4.754212782025437e-05,5.941309643867817e-05,0.00011465015776419409
2.352020938812334e-05,4.754393682273489e-05,5.941384798387462e-05,0.00011456898100748674
2.352069474234162e-05,4.754536976690607e-05,5.9414009485876905e-05,0.00011448560184790672
2.3520362534380034e-05,4.754823717432573e-05,5.941328090531106e-05,0.00011440007045230915
2.3519183671248485e-05,4.755443037127867e-05,5.9411133987488955e-05,0.00011431278293400429
2.3517290283611146e-05,4.7565045992165564e-05,5.9408010851223665e-05,0.00011422545484500461
2.351500860611615e-05,4.757996374615447e-05,5.940450452303027e-05,0.00011414050375888613
2.35126424620264e-05,4.7597744794119484e-05,5.940061986317072e-05,0.0001140595355908901
2.3510073586488625e-05,4.761640836101781e-05,5.939638282319214e-05,0.00011398217901469296
2.350726928539437e-05,4.7635676587589245e-05,5.939225966816089e-05,0.00011390627826434816
2.3505107594245646e-05,4.7657301540396386e-05,5.938891803159166e-05,0.0001138294237911298
2.3504509598552284e-05,4.768229613085258e-05,5.9386750995532163e-05,0.00011375037830173186
2.3505357326870254e-05,4.770949337508014e-05,5.938574290063679e-05,0.00011366950912807467
2.3506669441058965e-05,4.773682066189472e-05,5.9385697928067974e-05,0.0001135877496422574
2.3507737961121614e-05,4.7763269618412364e-05,5.938662650344161e-05,0.00011350501733200158
2.3508904301769293e-05,4.7789124889795696e-05,5.938907443035244e-05,0.00011342107625148846
2.351066577552454e-05,4.7814624899886035e-05,5.9393926751985264e-05,0.00011333713230908149
2.3512900376804527e-05,4.78397456845721e-05,5.940168523803291e-05,0.00011325507073389758
2.3515098911068884e-05,4.7864754223076546e-05,5.9412081437994436e-05,0.00011317620418981851
2.3516838019031467e-05,4.789004481923022e-05,5.9424449849292533e-05,0.00011310084443915422
2.3518225928704555e-05,4.7915407664556854e-05,5.943820863701314e-05,0.00011302810175722492
2.351977126473788e-05,4.7940102914493285e-05,5.9452828434619494e-05,0.00011295638243111917
2.3521773997376774e-05,4.796417055809436e-05,5.946743033338044e-05,0.00011288446327322763
2.3523966550514692e-05,4.7988688789689756e-05,5.948096541246614e-05,0.00011281159125498062
2.3525779976966938e-05,4.801448429039401e-05,5.949323083606802e-05,0.00011273685553965153
2.3526856327306222e-05,4.8041370225969934e-05,5.950498839036012e-05,0.00011265937410406121
2.352712906861796e-05,4.806845210739609e-05,5.9516859383600914e-05,0.00011257875250069058
2.352669523985612e-05,4.809489971460798e-05,5.952874662040159e-05,0.00011249557891918075
2.352578432823596e-05,4.812040105453582e-05,5.953999916778832e-05,0.000112411899504618
2.352464480136553e-05,4.8144955235624465e-05,5.954974394511247e-05,0.00011232991454049948
2.3523534943858e-05,4.816870596727362e-05,5.955760314233622e-05,0.00011225032474095852
2.3522752593136414e-05,4.8192039601771476e-05,5.9564040996206614e-05,0.00011217238867250177
2.3522377785000575e-05,4.821534183403019e-05,5.956953107880484e-05,0.00011209479331821966
2.3521971283229366e-05,4.823842708489734e-05,5.957412642082173e-05,0.0001120164179267712
2.3521232209209493e-05,4.82605041457948e-05,5.957792763573052e-05,0.00011193664501701705
2.3520829044527163e-05,4.8280853589824574e-05,5.958088814419974e-05,0.00011185561894296224
2.3521646376519983e-05,4.8299361778185195e-05,5.9582394253646257e-05,0.00011177433144893353
2.352379520722549e-05,4.8316570736108e-05,5.958191661032545e-05,0.0001116937142844134
2.352672361866779e-05,4.833349843787567e-05,5.957961204751726e-05,0.00011161363832133363
2.352981600517394e-05,4.835131958195826e-05,5.9575951226182936e-05,0.00011153374926054326
2.353280044562513e-05,4.8371154006640734e-05,5.9571354128149496e-05,0.00011145445293235667
2.3535652838374703e-05,4.839395865437651e-05,5.9565971816950124e-05,0.00011137591120626421
2.3538300279241597e-05,4.8420226683623065e-05,5.955944483418106e-05,0.00011129756842381964
2.3540538987152024e-05,4.844976624960184e-05,5.9551193866408075e-05,0.00011121866936049343
2.3542134985008498e-05,4.848177223403337e-05,5.954088893705016e-05,0.00011113831971524867
2.354301827725135e-05,4.851477457369338e-05,5.952861144170682e-05,0.00011105610389594536
2.354348267435376e-05,4.854740550573045e-05,5.9514873613023874e-05,0.00011097260051927071
2.3543996700515295e-05,4.857989936601361e-05,5.950018760693965e-05,0.00011088851886595198
2.354476382710011e-05,4.861368243236939e-05,5.948441553406502e-05,0.00011080402304571569
2.354557172002579e-05,4.864976313816506e-05,5.9467297984723836e-05,0.00011071937077649036
2.3546036348663545e-05,4.868809817250874e-05,5.9449377145418546e-05,0.0001106351935669
2.3545951861473596e-05,4.872764732203756e-05,5.943119049214328e-05,0.00011055189563664981
2.3545371060778355e-05,4.876704907044776e-05,5.941228012576303e-05,0.00011046915644782521
2.354437754268336e-05,4.880574542279795e-05,5.939186066115567e-05,0.00011038598855356693
2.3542908965722256e-05,4.88443341917389e-05,5.936961670896392e-05,0.00011030145391203712
2.3540827451302102e-05,4.8883776567911924e-05,5.9345638983254365e-05,0.00011021541001717313
2.3538079615505128e-05,4.892444164936791e-05,5.932063880165365e-05,0.0001101285205022985
2.353477019387455e-05,4.8965819634517216e-05,5.9296310111174454e-05,0.00011004153759433615
2.353104541722885e-05,4.900682696048715e-05,5.927482601400503e-05,0.00010995452282631258
2.3526833843058604e-05,4.904641486729168e-05,5.9257544597141884e-05,0.00010986705580575754
2.352205044420912e-05,4.90840996064305e-05,5.924395550410945e-05,0.00010977993361985682
2.3516970988440724e-05,4.91198446979727e-05,5.923213198464608e-05,0.00010969574811654553
2.3511863039740875e-05,4.915378135446801e-05,5.922010431125829e-05,0.00010961645692715917
2.350664471214081e-05,4.9186382146472235e-05,5.920691420613888e-05,0.00010954154946359317
2.3501139096977562e-05,4.921845711165625e-05,5.9192677356184324e-05,0.00010946922770394952
2.349539585674424e-05,4.9250730337538904e-05,5.9177447344430656e-05,0.00010939774488655857
2.348972836852835e-05,4.928360069378533e-05,5.9160903721202625e-05,0.00010932558333632
2.3484428275123963e-05,4.9317189500420024e-05,5.914312344217333e-05,0.00010925154717124297
2.3479444750491477e-05,4.935121161939178e-05,5.9124097903698615e-05,0.0001091749731022042
2.347438895170518e-05,4.938473699279246e-05,5.910385695735113e-05,0.00010909630150674114
2.3468859090029725e-05,4.94168461342789e-05,5.908342892672421e-05,0.00010901670610723562
2.3462655102557277e-05,4.944732675598061e-05,5.906373044274419e-05,0.00010893690834181676
2.3455739117791322e-05,4.9476255806621916e-05,5.90442272358852e-05,0.00010885758394550511
2.3448258535305136e-05,4.950401448284508e-05,5.902404109690126e-05,0.00010878006851824796
2.344055951991754e-05,4.953135382365338e-05,5.9003592998931274e-05,0.00010870533394540152
2.3432888270442256e-05,4.9558785027966646e-05,5.8983680643224326e-05,0.00010863308166144214
2.3425076837782776e-05,4.958674442675763e-05,5.8963827080566725e-05,0.00010856243154288928
2.34168129960531e-05,4.9615955284922684e-05,5.894303916562728e-05,0.00010849244036165985
2.3408037749266773e-05,4.964667131375201e-05,5.892142388801942e-05,0.00010842182538349907
2.3398757088408863e-05,4.9677797533128384e-05,5.890013754947793e-05,0.00010834920169843159
2.33890603141442e-05,4.970796198238275e-05,5.888075661912159e-05,0.00010827392811542112
2.337929677260054e-05,4.973710234101042e-05,5.886530659605268e-05,0.00010819614458455884
2.3369744703005482e-05,4.9766035715352365e-05,5.885587850912754e-05,0.00010811580011319752
2.336044148456986e-05,4.979563452566921e-05,5.8853203280463406e-05,0.00010803304508027717
2.3351327191275135e-05,4.9826434318791225e-05,5.885539399261039e-05,0.0001079494139440895
2.3342291594268077e-05,4.985808256074369e-05,5.885885140081606e-05,0.00010786696403324107
2.333304515917859e-05,4.9889549858123175e-05,5.886089052574591e-05,0.00010778644016677159
2.3323445351363172e-05,4.9920168752903785e-05,5.8860931039455095e-05,0.00010770671346157584
2.3313892594209024e-05,4.99499862247415e-05,5.885951122228315e-05,0.00010762612125922581
2.3304607753214514e-05,4.997899912481043e-05,5.885745685457754e-05,0.0001075443588012879
2.3295315264593338e-05,5.000671403257764e-05,5.8855987369537135e-05,0.00010746280735037882
2.3285993577984784e-05,5.003258832837615e-05,5.885686052128652e-05,0.00010738331684049833
2.327681733007049e-05,5.005650332347601e-05,5.8861806556772594e-05,0.00010730688682114962
2.3267574235899732e-05,5.007873983494258e-05,5.8871654699927524e-05,0.00010723382384432708
2.3258146056505913e-05,5.0099780023549125e-05,5.888583538730988e-05,0.00010716424496273555
2.3249029264694286e-05,5.012032961692218e-05,5.890233719014096e-05,0.00010709735581756868
2.3240786084377886e-05,5.014140605913007e-05,5.891859934988298e-05,0.00010703173332423883
2.323364335473054e-05,5.016402111291177e-05,5.8933059188786664e-05,0.0001069663044578624
2.322758003067415e-05,5.0188228019929864e-05,5.8945478342012734e-05,0.00010690004674554389
2.322230850762386e-05,5.0212944665180796e-05,5.895611663630432e-05,0.00010683199174143982
2.32172156225686e-05,5.0238167989811856e-05,5.8965577406727244e-05,0.00010676193161618673
2.3211783583613246e-05,5.0265835701789285e-05,5.8974920640410615e-05,0.00010669029528061143
2.3206075543449518e-05,5.0297087641429104e-05,5.8985247320888445e-05,0.00010661747032545785
2.3200375457134277e-05,5.033093341235541e-05,5.899705404004244e-05,0.0001065436426450783
2.3194753690221075e-05,5.0365750004945325e-05,5.900977351411556e-05,0.00010646888732780541
2.3189240397944336e-05,5.0400620197334046e-05,5.9021964432730105e-05,0.00010639342645721863
2.3184093561679163e-05,5.0435089577953346e-05,5.903236423438094e-05,0.00010631767399733374
2.3179704363537503e-05,5.046856715262594e-05,5.9040703083256475e-05,0.00010624169785656387
2.317619785592782e-05,5.050092602405047e-05,5.9047326473684105e-05,0.0001061650009805027
2.31732209717669e-05,5.0532665931305376e-05,5.905244194510278e-05,0.00010608688531410043
2.3170219012241235e-05,5.056404388465141e-05,5.9055854792251104e-05,0.00010600689333822303
2.3166896335796717e-05,5.059501338312922e-05,5.905761757704487e-05,0.00010592532671543854
2.3163373417218382e-05,5.062568060533405e-05,5.905867099422511e-05,0.00010584379861448223
2.3159978108576493e-05,5.0655983722918244e-05,5.9060536854796275e-05,0.00010576442932345423
2.3156880644346363e-05,5.068531721304115e-05,5.9064567719074634e-05,0.00010568789724060433
2.3153793392404956e-05,5.0713145863021254e-05,5.9071316178297476e-05,0.00010561310841389386
2.315033185932269e-05,5.0739311713312636e-05,5.908040934447508e-05,0.00010553867118577442
2.3146523163047966e-05,5.0763618381648576e-05,5.909102075910044e-05,0.00010546414890845004
2.3142398404664077e-05,5.0786325677306884e-05,5.910258383251547e-05,0.00010539037862280182
2.313777376195095e-05,5.0808826533668594e-05,5.9115066419310575e-05,0.0001053186623646483
2.313268910529449e-05,5.083284878335281e-05,5.912856063022674e-05,0.0001052496357561383
2.31273693934599e-05,5.085900596406574e-05,5.914273715313415e-05,0.00010518227881653778
