-6.409110210370272e-05,-0.0007542915991507471,1.540491393825505e-05
-0.0003618033661041409,-0.00047287371126003563,1.0313893653801642e-05
-0.0004083923122379929,-0.00023613379744347185,-3.3763816986720485e-07
-0.00022851547691971064,-4.2444975406397134e-05,-1.2928160685987677e-05
-3.304940491943853e-06,0.00012747252185363322,-2.2962211005506106e-05
0.00012105536734452471,0.00029723436455242336,-2.66013594227843e-05
0.00011721625924110413,0.00047012275899760425,-2.827810385497287e-05
1.5548416740784887e-06,0.000571782176848501,-3.099707464571111e-05
-0.0002385504631092772,0.0005723763024434447,-3.275601920904592e-05
-0.0005615618429146707,0.0005918710376136005,-2.8273358111619018e-05
-0.0007808454101905227,0.0006683167885057628,-2.358452729822602e-05
-0.0007277727127075195,0.0005907099111936986,-2.0867537386948243e-05
-0.0005089110345579684,0.00026313841226510704,-1.7916439901455306e-05
-0.0003388894838280976,-0.00014705814828630537,-1.8975086277350783e-05
-0.00019063253421336412,-0.0003069745434913784,-3.124591603409499e-05
6.937629950698465e-05,-0.00011214315600227565,-4.8659974709153175e-05
0.0003737721999641508,6.801044946769252e-05,-5.175218029762618e-05
0.0005018823430873454,-6.52284434181638e-05,-3.735426435014233e-05
0.0004446403472684324,-0.00030579621670767665,-2.904169014072977e-05
0.0004070436116307974,-0.00043551551061682403,-3.475341509329155e-05
0.00048547322512604296,-0.00041618067189119756,-4.214518048684113e-05
0.0005885956343263388,-0.00019298419647384435,-4.4486219849204645e-05
0.0005595331313088536,0.00013779476284980774,-4.5082135329721496e-05
0.00042352688615210354,0.0003861904551740736,-4.640557017410174e-05
0.0002708721440285444,0.00040269739110954106,-5.194270852371119e-05
0.00015120801981538534,0.00022774883836973459,-5.8748992159962654e-05
5.6035310990409926e-05,2.7837626475957222e-05,-5.893992420169525e-05
-3.9802234823582694e-05,-5.732020508730784e-05,-5.048405728302896e-05
-0.00018521987658459693,-3.196633406332694e-05,-3.85026796720922e-05
-0.000374696304788813,6.780548574170098e-06,-2.761157156783156e-05
-0.0004934665048494935,-5.554702056542737e-06,-2.050223520200234e-05
-0.0004454840091057122,-4.8624686314724386e-05,-1.8713893950916827e-05
-0.00025781054864637554,-4.746546983369626e-05,-2.0407069314387627e-05
-4.5677388698095456e-05,3.4746558412734885e-06,-2.2817692297394387e-05
0.00015311417519114912,1.6418724044342525e-05,-2.065798435069155e-05
0.0003671812592074275,-8.223168697440997e-05,-1.0289706551702693e-05
0.0005593281821347773,-0.00024173219571821392,5.101443093735725e-06
0.0005830689915455878,-0.0003341460251249373,1.8999269741470926e-05
0.0004048461269121617,-0.0002161442971555516,3.088924495386891e-05
0.00016961261280812323,0.00021916476543992758,3.461361484369263e-05
3.1759314879309386e-05,0.0007694485830143094,2.32261936616851e-05
-6.756616130587645e-06,0.000933903967961669,2.6735667688626563e-06
1.4530423868563958e-05,0.0005651979590766132,-1.9764538592426106e-05
9.408016194356605e-05,-0.00015437995898537338,-4.251560676493682e-05
0.0002241610491182655,-0.0008070440380834043,-4.937525591230951e-05
0.000332550669554621,-0.001133787794969976,-4.13392081100028e-05
0.0003332030610181391,-0.0010774045949801803,-3.0245397283579223e-05
0.00025584144168533385,-0.0006304673734121025,-1.7878035578178242e-05
0.00019034466822631657,-8.53092860779725e-05,-4.100828391528921e-06
0.0001501258520875126,0.0003428294730838388,4.945473847328685e-06
0.0001547257270431146,0.0005535961827263236,4.0669101508683525e-06
0.00020360406779218465,0.0005616593407467008,9.053700523509178e-06
0.00028477906016632915,0.00039214538992382586,2.29377383220708e-05
0.00036086770705878735,0.00012881519796792418,2.9159260520827956e-05
0.00025305370218120515,-0.00012995320139452815,1.714975223876536e-05
-0.00013095929170958698,-0.00028677983209490776,-6.401567134162178e-06
-0.0005761576467193663,-0.00029414118034765124,-2.9479335353244096e-05
-0.0007924707024358213,-0.0001699584099696949,-4.74256812594831e-05
-0.0006964376079849899,4.660378544940613e-05,-5.904238423681818e-05
-0.0004151277826167643,0.0002726862148847431,-6.490160740213469e-05
-0.00015014552627690136,0.00039410433964803815,-6.717156065860763e-05
-1.7892754840431735e-05,0.0003378976252861321,-6.445957842515782e-05
-6.57443015370518e-05,0.0001969999575521797,-5.2783419960178435e-05
-0.0002977074182126671,0.0001002814169623889,-3.791431663557887e-05
-0.0005734252044931054,9.289911395171657e-05,-3.1855161068961024e-05
-0.0006615602178499103,0.00010316968109691516,-3.397004911676049e-05
-0.0005568199558183551,7.645550795132294e-05,-3.09611095872242e-05
-0.00045739879715256393,3.0669373245473253e-06,-1.6044446965679526e-05
-0.0004598645318765193,2.8538568585645407e-05,1.0328935786674265e-06
-0.0004611535696312785,0.0002621060993988067,6.911784112162422e-06
-0.0003775817749556154,0.0004523244861047715,9.704259355203249e-06
-0.00023244523617904633,0.0003299630479887128,2.150713771698065e-05
2.495362605259288e-05,-1.4555507732438855e-05,2.968706212413963e-05
0.0003570767876226455,-0.00044644047738984227,2.274196049256716e-05
0.0005569565109908581,-0.0007967777783051133,6.203451619057887e-08
0.0006353126955218613,-0.0008249052334576845,-3.643705349531956e-05
0.0006950488896109164,-0.0004758657014463097,-8.322353824041784e-05
0.000700573727954179,-2.0716186099889455e-06,-0.0001247408363269642
0.000591280113440007,0.00032885343534871936,-0.00014012650353834033
0.00041363967466168106,0.0004305433831177652,-0.00012766516010742635
0.0002750122221186757,0.00030613361741416156,-0.00010370940435677767
0.00019917861209250987,7.710995123488829e-05,-8.979612175608054e-05
0.0001701006549410522,-0.00010120312799699605,-8.859985246090218e-05
0.00018120421736966819,-0.00015632079157512635,-8.487494051223621e-05
0.00021919851133134216,-0.00014164551976136863,-6.676558405160904e-05
0.00023471975873690099,-0.00014786225801799446,-3.537207157933153e-05
0.00018066811026073992,-0.00022327560873236507,-4.044418801640859e-06
9.342411067336798e-05,-0.00030413121567107737,6.098839094192954e-06
7.21672986401245e-05,-0.00026314755086787045,-1.1692700354615226e-05
0.00011646354687400162,-6.490928353741765e-05,-3.62042264896445e-05
0.00013877582387067378,0.00021220829512458295,-4.700456338468939e-05
0.0001045029130182229,0.0005169418873265386,-4.887565955868922e-05
2.0377085093059577e-05,0.0007198044913820922,-5.0171125622000545e-05
-0.0001080093570635654,0.0006510447710752487,-4.0272196201840416e-05
-0.00021496463159564883,0.0003263973048888147,-1.0195933100476395e-05
-0.00022947271645534784,-7.167368312366307e-05,2.981195575557649e-05
-0.00020855569164268672,-0.000330521899741143,5.6749100622255355e-05
-0.00017194975225720555,-0.0003655359032563865,6.031412340234965e-05
-7.988214201759547e-05,-0.00022008376254234463,5.153538586455397e-05
-4.256070315022953e-05,-2.79044570561382e-06,4.757155693368986e-05
-0.00012557195441331714,0.00018887841724790633,5.279312972561456e-05
-0.00025865252246148884,0.0002917151141446084,5.808329296996817e-05
-0.00038591856718994677,0.00026336166774854064,5.520982085727155e-05
-0.0004829618555959314,0.00015338696539402008,3.612618093029596e-05
-0.0004882582579739392,3.684497642097995e-05,1.0220119293080643e-05
-0.00030406092992052436,-2.6982294002664275e-05,-5.011008852306986e-06
5.224773121881299e-05,-4.086294211447239e-05,-1.2842951946367975e-05
0.0003621858195401728,-2.0797648176085204e-05,-2.0634877728298306e-05
0.0004588583833537996,0.00013629770546685904,-2.934677104349248e-05
0.0004052874573972076,0.00041766942013055086,-3.843764352495782e-05
0.00029815241578035057,0.0005373650346882641,-4.3586522224359214e-05
0.00016087759286165237,0.0003118887252639979,-4.0532209823140875e-05
2.520895577617921e-05,-0.0001410125260008499,-3.302695040474646e-05
-2.0945581127307378e-05,-0.0005982739967294037,-3.071565515710972e-05
8.988755143946037e-05,-0.0009088919032365084,-3.886731792590581e-05
0.0003046308702323586,-0.0009570510592311621,-5.26153453392908e-05
0.00045897625386714935,-0.0007086606347002089,-6.396052776835859e-05
0.0004517910711001605,-0.00031841223244555295,-6.810887134633958e-05
0.0003288775042165071,1.1456721040303819e-05,-6.684904656140134e-05
0.0002201315510319546,0.0001679075212450698,-6.044321344234049e-05
0.00020625516481231898,0.00014436949277296662,-4.4232398067833856e-05
0.00026099977549165487,5.2735424105776474e-05,-2.7136777134728618e-05
0.000330975599354133,3.2258776627713814e-05,-2.4078388378256932e-05
0.0003774950164370239,0.00011138368427054957,-3.360467235324904e-05
0.0003642991650849581,0.00022546123364008963,-4.172218541498296e-05
0.00026868944405578077,0.0002515845117159188,-3.7744888686574996e-05
0.00015335579519160092,0.00018651335267350078,-2.4378336092922837e-05
6.367183959810063e-05,0.00011687428195727989,-1.0097360245708842e-05
-1.2037192391289864e-05,7.658069807803258e-05,1.358249164695735e-06
-9.563465573592111e-05,5.10673489770852e-05,4.51642654297757e-06
-0.00018721254309639335,2.2200116291060112e-05,-5.2681052693515085e-06
-0.00024353261687792838,2.686523112060968e-05,-2.104790291923564e-05
-0.00023974447685759515,0.00011011632886948064,-2.5232247935491614e-05
-0.00017583700537215918,0.00025362271117046475,-1.7506798030808568e-05
-9.254199540009722e-05,0.0004425796214491129,-1.1418675967433956e-05
5.315554290064028e-07,0.0006965203210711479,-8.64559206092963e-06
0.0001075054969987832,0.0008106532623060048,-5.036386482970556e-06
0.00019238698587287217,0.0005344227538444102,2.6066081204589864e-07
0.00020663737086579204,-5.506052912096493e-05,3.376827407919336e-06
0.00016625884745735675,-0.0006325922440737486,3.675522521007224e-06
0.00015108153456822038,-0.0009440199937671423,8.044240757953958e-07
0.00021808796736877412,-0.0009149741381406784,-6.435820978367701e-06
0.00035052443854510784,-0.0005668348167091608,-1.835117654991336e-05
0.0004781555035151541,-0.00010824095807038248,-3.580475095077418e-05
0.0004884134395979345,0.0001871409040177241,-5.567642438109033e-05
0.00029019152862019837,0.0002600157749839127,-6.996725278440863e-05
-4.910287680104375e-05,0.00021690958237741143,-7.70316255511716e-05
-0.0003106177318841219,0.00013521518849302083,-7.671325147384778e-05
-0.0003733523190021515,5.1951283239759505e-05,-6.398937694029883e-05
-0.0003886231570504606,-2.452080479997676e-05,-4.3659751099767163e-05
-0.0004680522542912513,-7.40798786864616e-05,-2.7403541025705636e-05
-0.0005540595739148557,-6.475934787886217e-05,-2.0027620848850347e-05
-0.000615639379248023,-2.980056706292089e-06,-1.7401234799763188e-05
-0.0006378095713444054,3.882949749822728e-05,-1.8048540368909016e-05
-0.0005459950771182775,1.3210672477725893e-05,-1.947684540937189e-05
-0.000353375100530684,-2.2608996005146764e-05,-1.4225068298401311e-05
-0.00016248604515567422,1.8746344721876085e-05,-4.199964223516872e-06
-2.783735362754669e-05,0.00017212815873790532,4.177890332357492e-06
9.874835814116523e-05,0.0004577027284540236,1.1865536180266645e-05
0.00024303652753587812,0.0008106187451630831,1.890903695311863e-05
0.00028084643417969346,0.0009091297979466617,2.0415829567355104e-05
0.00013520705397240818,0.0005032300832681358,1.4123224900686182e-05
-6.795945228077471e-05,-0.0002957753313239664,4.461397566046799e-06
-0.00015383207937702537,-0.0011416771449148655,1.1239631021453533e-06
-7.77599198045209e-05,-0.00167563755530864,5.3358471632236615e-06
9.021575533552095e-05,-0.001658656750805676,6.93794027029071e-06
0.0002651766699273139,-0.0010871627600863576,-4.0062695916276425e-06
0.00041901462827809155,-0.00023639474238734692,-2.4858900360413827e-05
0.0005290849367156625,0.0005531576462090015,-4.5895045332144946e-05
0.0005367466364987195,0.001026785932481289,-6.471596861956641e-05
0.00042862919508479536,0.001102942624129355,-8.022330439416692e-05
0.0002915849909186363,0.0008882589754648507,-8.653811528347433e-05
0.0001595037174411118,0.0005549383931793272,-7.892955181887373e-05
-4.346092828200199e-05,0.00019937688193749636,-6.441537698265165e-05
-0.0003285450511611998,-0.00011089235340477899,-5.3968498832546175e-05
-0.0005662627518177032,-0.00026905510458163917,-5.0204926083097234e-05
-0.0005694652791135013,-0.0002361331571592018,-5.1451523177092895e-05
-0.00031912815757095814,-6.026006303727627e-05,-5.56546583538875e-05
-1.6994474208331667e-05,0.0002629700175020844,-5.525635424419306e-05
6.851482612546533e-05,0.0005687745870091021,-5.039756069891155e-05
-0.00010400044993730262,0.0006234043394215405,-4.5874017814639956e-05
-0.0003266624116804451,0.00042923461296595633,-4.0522976632928476e-05
-0.0004660931881517172,0.00012047897325828671,-3.6975859984522685e-05
-0.0005045633297413588,-0.00012589426478371024,-3.2637235563015565e-05
-0.0004520398797467351,-0.000280628475593403,-2.423496152914595e-05
-0.0002858233347069472,-0.00035484982072375715,-1.778242403815966e-05
4.705291212303564e-05,-0.00035643286537379026,-1.4091306184127461e-05
0.000533191196154803,-0.0002764633682090789,-8.563752999179997e-06
0.000954437826294452,-0.00014504425053019077,-3.469973989922437e-06
0.0010756906121969223,-2.0328237951616757e-05,1.2742196986437193e-06
0.0008778166375122964,5.006951323593967e-05,6.272414339036914e-06
0.000576592399738729,5.844527913723141e-05,9.34869149205042e-06
0.00038562138797715306,5.2203813538653776e-05,7.404586540360469e-06
0.00033529032953083515,6.229435530258343e-05,7.738278782198904e-07
0.0003228007990401238,7.620349060744047e-05,-8.146188520186115e-06
0.00023962520936038345,5.627844075206667e-05,-1.7131253116531298e-05
9.988748206524178e-05,3.6714736779686064e-06,-1.9612809410318732e-05
-2.3840233552618884e-05,-7.378987356787547e-05,-8.581680958741345e-06
-0.00010491975262993947,-0.0001543813559692353,1.2853804946644232e-05
-0.0001654122315812856,-0.00014399300562217832,2.8289463443798013e-05
-0.00022129600984044373,0.00011132822692161426,1.8690408978727646e-05
-0.0003046388446819037,0.0005756790633313358,-1.2830254490836523e-05
-0.00039523912710137665,0.0009514816920273006,-3.68965083907824e-05
-0.00043614880996756256,0.0008275537984445691,-4.237876055412926e-05
-0.0004325851914472878,0.00020433656754903495,-4.12944755225908e-05
-0.00041237808181904256,-0.0006180108757689595,-4.7028748667798936e-05
-0.0003589997359085828,-0.001254091039299965,-5.7957731769420207e-05
-0.00022647397418040782,-0.0014668890507891774,-5.990071076666936e-05
-7.385130629700143e-06,-0.0011596356052905321,-4.8777270421851426e-05
0.0002835060004144907,-0.00045634189154952765,-4.217044624965638e-05
0.0006341949920170009,0.00012941434397362173,-5.266577863949351e-05
0.0008117906982079148,0.0003902660100720823,-6.685371772618964e-05
0.0006264552939683199,0.0003860875149257481,-7.152301259338856e-05
0.0002731978602241725,0.00029657722916454077,-6.323705019894987e-05
5.472152042784728e-05,0.00022349762730300426,-5.1902021368732676e-05
2.91187061520759e-05,0.00020371636492200196,-4.784745033248328e-05
7.711019861744717e-05,0.0002028467715717852,-4.577018989948556e-05
0.00010407603986095637,0.00019295993843115866,-3.62912323907949e-05
9.062387107405812e-05,0.00017692471737973392,-1.829691245802678e-05
5.042229167884216e-05,0.0001482862135162577,-2.9377702048805077e-06
-7.849127541703638e-06,0.00012659691856242716,4.69081236076363e-08
-4.644531509256922e-05,0.00013172773469705135,-5.633465661958326e-06
-3.934410779038444e-05,0.00016899273032322526,-7.644109246029984e-06
-3.877940343954833e-06,0.00016457127640023828,-3.5668503528540896e-07
2.0531238988041878e-05,6.487012433353812e-05,9.736872925714124e-06
1.3955235772300512e-05,-0.0001405396033078432,1.586975486134179e-05
-4.1547889850335196e-05,-0.000361962040187791,1.9768785932683386e-05
-0.00011211929086130112,-0.0005074795335531235,2.2924086806597188e-05
-0.00012248591519892216,-0.0005076958914287388,1.933099702000618e-05
-8.467389125144109e-05,-0.00035683755413629115,3.154128989990568e-06
-4.200326293357648e-05,-6.483616743935272e-05,-1.745370900607668e-05
5.349186176317744e-05,0.0002723991055972874,-3.055731940548867e-05
0.00015874564996920526,0.0005074649816378951,-3.781479244935326e-05
0.0001278396521229297,0.0005047605372965336,-3.8932957977522165e-05
6.885336188133806e-05,0.0003373479994479567,-3.592508801375516e-05
7.506883412133902e-05,0.00015814600919838995,-3.04073364532087e-05
-4.160873686487321e-06,3.5968547308584675e-05,-1.5348563465522602e-05
-0.0001380533940391615,1.3391841093834955e-05,6.780352578061866e-06
-0.00015514476399403065,0.0001179264290840365,1.7128984836745076e-05
-1.3357743227970786e-05,0.00027550061349757016,4.3564023144426756e-06
0.0001346389326499775,0.0003101603942923248,-1.5725490811746567e-05
0.00021692914015147835,0.00018918266869150102,-2.4211085474235006e-05
0.00030673216679133475,-9.742628748199422e-08,-1.9623410480562598e-05
0.000485827011289075,-0.00015468908532056957,-1.4182421182340477e-05
0.0006864237948320806,-0.0002378085773671046,-1.772177711245604e-05
0.0007358911680057645,-0.00020893731561955065,-2.9131875635357574e-05
0.000549069547560066,-5.956503810011782e-05,-3.913922773790546e-05
0.00013502556248567998,0.0001441326894564554,-3.9992370147956535e-05
-0.00041587359737604856,0.0002695142466109246,-3.1517054594587535e-05
-0.000885639397893101,0.00021608891256619245,-2.2745483875041828e-05
-0.001018477021716535,7.836390068405308e-06,-2.3474256522604264e-05
-0.00080381880979985,-0.00022094672021921724,-3.624278542702086e-05
-0.00044702168088406324,-0.0003497168654575944,-5.1602131861727685e-05
-0.00012358328967820853,-0.00034740223782137036,-5.849722947459668e-05
0.00018238925258629024,-0.0002860100648831576,-5.361597868613899e-05
0.0004852084966842085,-0.00026596637326292694,-3.596068563638255e-05
0.000612344709224999,-0.00025544274831190705,-1.6351690646843053e-05
0.0004326024791225791,-0.00010949345596600324,-4.429094587976579e-06
0.0001390340185025707,0.00015505914052482694,1.9285805592517136e-06
-5.7204139011446387e-05,0.00035270911757834256,8.738973519939464e-06
-0.00011917696974705905,0.0005085719167254865,8.024508133530617e-06
-0.00012692395830526948,0.0007465851376764476,-2.1925595774519024e-06
-0.00010787174687720835,0.0009013413800857961,-1.2353144484222867e-05
-2.5518462280160747e-05,0.0007344366167671978,-2.234686144220177e-05
7.927075785119087e-05,0.00032009711139835417,-3.071671744692139e-05
0.00015459791757166386,-0.00016821380995679647,-3.342160562169738e-05
0.0002560544526204467,-0.0006623277440667152,-3.067371289944276e-05
0.00035176274832338095,-0.0010559569345787168,-3.0124481781967916e-05
0.00017531178309582174,-0.0011357218027114868,-3.426041075726971e-05
-0.0002558953419793397,-0.0007897659670561552,-4.267113035893999e-05
-0.0006018505664542317,-0.0002166089107049629,-5.172790406504646e-05
-0.000665628700517118,0.0002306099486304447,-5.300297198118642e-05
-0.0005328807746991515,0.0003407944168429822,-4.0191862353822216e-05
-0.0003274389891885221,0.00015947646170388907,-1.9690784029080532e-05
-2.0633880922105163e-05,-0.00010921450302703306,-6.535741249535931e-06
0.0004884772351942956,-0.00026371708372607827,-6.1498399190895725e-06
0.0010569358710199594,-0.0002453058259561658,-1.34614765556762e-05
0.001250996720045805,-0.00014319646288640797,-2.4149145247065462e-05
0.0008738661417737603,-8.719109609955922e-05,-3.724334601429291e-05
0.0002695863076951355,-0.00012058560969308019,-4.763538163388148e-05
-0.00011946904851356521,-0.0001857046881923452,-5.073530337540433e-05
-0.00024398881942033768,-0.0001840451586758718,-4.549966615741141e-05
-0.000304037966998294,-4.081818042322993e-05,-3.624701639637351e-05
-0.00034723992575891316,0.00016867133672349155,-2.9220715077826753e-05
-0.0002883568231482059,0.00026191817596554756,-2.6725887437351048e-05
-0.00013990160368848592,0.0001837961026467383,-2.8216363716637716e-05
3.9929738704813644e-05,2.3401618818752468e-05,-3.339723116368987e-05
0.0001647842291276902,-5.2222301746951416e-05,-4.291099321562797e-05
0.00020250736270099878,9.139973553828895e-05,-5.6017299357336015e-05
0.000195489774341695,0.0004030799900647253,-6.851531361462548e-05
0.00016581194358877838,0.00065628532320261,-7.701489812461659e-05
0.00011705936049111187,0.0006480501615442336,-7.849589746911079e-05
5.202866668696515e-05,0.0004543664399534464,-6.932967517059296e-05
1.5985278878360987e-05,0.000300751969916746,-5.1053448260063305e-05
0.00010733979434007779,0.0003101729089394212,-3.289940286776982e-05
0.0003280992095824331,0.000378951255697757,-2.203541407652665e-05
0.0004698999400716275,0.0003685462288558483,-1.6216165022342466e-05
0.00039300895878113806,0.0002670609683264047,-9.412166036781855e-06
0.00018576339061837643,7.547273708041757e-05,-2.7765318009187467e-06
2.262027373944875e-05,-0.0001726675109239295,-2.4028731786529534e-06
-1.1755884770536795e-05,-0.00033209598041139543,-9.59811768552754e-06
4.015026570414193e-05,-0.00018910988001152873,-1.6054618754424155e-05
8.04639421403408e-05,0.00032309998641721904,-1.251627236342756e-05
4.084950342075899e-05,0.0008712124545127153,-6.164947876641236e-07
-9.52328264247626e-05,0.0009280709200538695,1.0776897397590801e-05
-0.0002825120755005628,0.0003771968767978251,1.8161767002311535e-05
-0.00037413722020573914,-0.000442299380665645,2.325285822735168e-05
-0.0002617323771119118,-0.0011168563505634665,2.26645715883933e-05
-4.586611976264976e-05,-0.0014159915735945106,1.263097146875225e-05
6.003773887641728e-05,-0.0012433876981958747,-2.3672553197684465e-06
-6.0215323173906654e-05,-0.000568110728636384,-1.1348420230206102e-05
-0.00029287132201716304,0.00027728325221687555,-1.0925122296612244e-05
-0.0004179755924269557,0.0007209779578261077,-1.1836225894512609e-05
-0.0003484459884930402,0.0005533451330848038,-2.468689672241453e-05
-0.00012997633893974125,-1.7594280507182702e-05,-3.990131153841503e-05
0.0001126106217270717,-0.0005931892665103078,-4.032366632600315e-05
0.00026448184507898986,-0.0008458582451567054,-3.011737862834707e-05
0.0002804808027576655,-0.0007340702577494085,-2.411581044725608e-05
0.0001467477559344843,-0.00041013650479726493,-2.450382635288406e-05
-7.115840708138421e-05,-6.984540959820151e-05,-2.7158577722730115e-05
-0.00017237107385881245,0.00019840408640448004,-3.255569390603341e-05
-7.764600741211325e-05,0.0003663165553007275,-4.1481616790406406e-05
-5.937233254371677e-06,0.0004509563441388309,-4.8740796046331525e-05
-0.00011619101860560477,0.00046593131264671683,-5.019847594667226e-05
-0.00025314625236205757,0.00041365931974723935,-4.582108522299677e-05
-0.0002656864235177636,0.00030829236493445933,-4.170318788965233e-05
-0.00018192654533777386,0.00017958288663066924,-4.132001049583778e-05
-6.371310882968828e-05,8.121220162138343e-05,-4.3716176151065156e-05
6.746809231117368e-05,3.586311868275516e-05,-4.416286901687272e-05
0.00015676728799007833,3.4903154300991446e-05,-3.7573827285086736e-05
0.000119722870294936,4.655410521081649e-05,-2.132055305992253e-05
-3.455100886640139e-05,5.4124535381561145e-05,1.0492547062312951e-06
-0.0001642816496314481,5.031483306083828e-05,1.754717595758848e-05
-0.0001464874076191336,2.6485258786124177e-05,2.051193041552324e-05
-3.593405199353583e-05,-3.816432217718102e-05,1.6942836737143807e-05
5.90294657740742e-05,-0.00012114104174543172,1.6789132132544182e-05
0.00013734430831391364,-0.00014563654258381575,2.127877451130189e-05
0.00022973059094510972,-1.2632011021196377e-05,2.27022246690467e-05
0.0002843582769855857,0.00018116251158062369,1.9530174540705048e-05
0.00029619113774970174,0.00020287117513362318,1.7227897842531092e-05
0.00033943133894354105,-6.449372449424118e-06,1.2109878298360854e-05
0.00038052539457567036,-0.0002660012396518141,4.796987923327833e-06
0.0002555068931542337,-0.00042640691390261054,-6.508984370157123e-06
-3.0233854886319023e-06,-0.0004900590283796191,-2.3408449123962782e-05
-7.754832040518522e-05,-0.0004319318104535341,-4.250269557815045e-05
3.9409114833688363e-05,-0.0002152219822164625,-5.810886432300322e-05
0.00010925588867394254,9.799782128538936e-05,-6.755364302080125e-05
0.00019212109327781945,0.00032192625803872943,-6.611995922867209e-05
0.0003867928171530366,0.0003865055914502591,-5.671380858984776e-05
0.0005699344910681248,0.00036060172715224326,-4.7751771489856765e-05
0.0004804742056876421,0.0003183850203640759,-4.400890611577779e-05
0.00013140877126716077,0.00026818792684935033,-4.422432539286092e-05
-0.00014447241846937686,0.00019664321735035628,-4.171395266894251e-05
-0.000148946579429321,0.0001218906618305482,-3.4034354030154645e-05
-9.031415174831636e-06,8.811533189145848e-05,-2.4198736355174333e-05
8.726581290829927e-05,0.00017856707563623786,-1.6961968867690302e-05
0.00010536982881603763,0.0004058675258420408,-1.5819376130821183e-05
9.60839752224274e-05,0.0006010939832776785,-2.154589856218081e-05
9.684994438430294e-05,0.0005795329925604165,-2.798923378577456e-05
8.710620022611693e-05,0.0003442929591983557,-3.116068182862364e-05
4.864979564445093e-05,-2.1753836335847154e-05,-3.358812318765558e-05
-1.4414382349059451e-05,-0.00043894696864299476,-4.1974359191954136e-05
-8.260192407760769e-05,-0.0007810312090441585,-5.357850750442594e-05
-0.00014279842434916645,-0.0009022452868521214,-5.7866316637955606e-05
-0.0002163763128919527,-0.0007486268295906484,-4.845588046009652e-05
-0.00031367631163448095,-0.0004184916615486145,-3.287626168457791e-05
-0.0003149515832774341,-5.596908158622682e-05,-2.168837090721354e-05
-0.000156768859596923,0.00040836032712832093,-1.6095820683403872e-05
5.9256006352370605e-05,0.0007928675622679293,-1.4953908248571679e-05
0.0002209308440797031,0.0007896717288531363,-1.7917229342856444e-05
0.00024774845223873854,0.00042065742309205234,-3.118944732705131e-05
0.0002250857651233673,-0.0001270884386030957,-5.0192866183351725e-05
0.0002857465879060328,-0.0005624490440823138,-6.20064529357478e-05
0.000359495694283396,-0.0007189835887402296,-6.382379797287285e-05
0.0003093810228165239,-0.0005502646672539413,-5.469272218761034e-05
0.00011690765677485615,-0.00021433431538753211,-3.987801756011322e-05
-1.558063377160579e-05,9.413123916601762e-05,-2.930655136879068e-05
1.4611310689360835e-05,0.00023659868747927248,-2.7369171220925637e-05
9.138432506006211e-05,0.00017301784828305244,-2.4175837097573094e-05
6.271158781601116e-05,-3.7319384773581987e-06,-1.5421039279317483e-05
-6.469080835813656e-05,-0.00013962456432636827,-3.942445800930727e-06
-0.0001559140218887478,-0.00015957785944920033,-2.0465067791519687e-06
-0.00013135404151398689,-0.00011406256817281246,-1.8521255697123706e-05
-3.3637406886555254e-05,-5.5773700296413153e-05,-4.556374915409833e-05
1.4516252122120932e-05,-1.0043861038866453e-05,-6.369203038047999e-05
-5.519072146853432e-05,2.4093564206850715e-05,-5.83392393309623e-05
-0.0001641276612645015,3.145902883261442e-05,-3.836323958239518e-05
-0.00016108046111185104,3.094557177973911e-05,-2.075584779959172e-05
-8.497053204337135e-05,4.743941462947987e-05,-1.2687037269643042e-05
-7.463814108632505e-05,9.224098175764084e-05,-7.398418802040396e-06
-0.00014553275832440704,0.0001256200048374012,9.438901429348334e-07
-0.00019249855540692806,0.00013121527445036918,1.6761807273724116e-05
-0.0001607623853487894,9.660687646828592e-05,3.2707586797187105e-05
-7.628843013662845e-05,4.716103649116121e-05,3.431886216276325e-05
8.24818343971856e-05,0.0001345413038507104,2.0291707187425345e-05
0.0002871198521461338,0.00037894913111813366,7.307723080884898e-06
0.0003519416495691985,0.00045671319821849465,6.830416623415658e-06
0.00019455049186944962,0.0001541085512144491,1.4171226212056354e-05
-3.751805343199521e-05,-0.00031319892150349915,1.718787825666368e-05
-0.00015021924627944827,-0.00065344397444278,9.388728358317167e-06
-0.00011571810318855569,-0.0008210569503717124,-4.03494959755335e-06
5.4882216318219434e-06,-0.0006237291381694376,-1.7760576156433672e-05
0.00011785332026192918,3.959736568504013e-05,-2.4296728952322155e-05
0.00017923640552908182,0.0007213096832856536,-2.2700565750710666e-05
0.00021584545902442187,0.0009711780003271997,-2.6080348106916063e-05
0.0002632866089697927,0.0007183519192039967,-3.869196734740399e-05
0.0003188216360285878,0.00018125463975593448,-5.2221315854694694e-05
0.0003386444877833128,-0.00029765110230073333,-5.575492832576856e-05
0.0003006954793818295,-0.0004566074348986149,-5.095189044368453e-05
0.0001913013547891751,-0.00030328682623803616,-4.6612964069936424e-05
4.504157186602242e-05,-3.422810914344154e-05,-4.649583934224211e-05
-4.068562338943593e-05,0.00016156934725586325,-5.0045124226016924e-05
-1.7238273358088918e-05,0.0001994638005271554,-5.134385355631821e-05
1.8602850104798563e-05,0.0001039157432387583,-4.212386193103157e-05
-2.5872492187772878e-05,2.558081860115635e-06,-2.423751175228972e-05
-0.00014012727478984743,-7.737616215308663e-06,-1.101033285522135e-05
-0.0002450736064929515,3.6839162930846214e-05,-8.82043968886137e-06
-0.0003573026042431593,5.109374978928827e-05,-1.2340777175268158e-05
-0.0005465634167194366,3.537414886523038e-05,-1.5629220797563903e-05
-0.000746964942663908,8.896386134438217e-06,-1.6494483134010807e-05
-0.0008385707042180002,-3.0406683436012827e-05,-1.547131068946328e-05
-0.0006452616071328521,-8.630986121715978e-05,-1.599471397639718e-05
-0.00012377127131912857,-0.0001588881277712062,-1.98055749933701e-05
0.00044328582589514554,-0.00022163418179843575,-2.221932118118275e-05
0.0008199625299312174,-0.0002471399784553796,-1.1260567589488346e-05
0.0009220055653713644,-0.00024637169553898275,7.536264092777856e-06
0.0007139999070204794,-0.00019197113579139113,1.803422492230311e-05
0.00027031145873479545,-4.8947807954391465e-05,1.4914161511114798e-05
-0.00010026702511822805,0.00010558766371104866,1.9427288862061687e-06
-0.00015311814786400646,0.00015771326434332877,-1.0870294318010565e-05
7.182051194831729e-05,0.00012970723037142307,-1.6008900274755433e-05
0.00032037426717579365,0.0001683601294644177,-1.3129098988429178e-05
0.0003627339901868254,0.0003211802104488015,-8.61412536323769e-06
0.00023852830054238439,0.0004524767573457211,-9.633370609662961e-06
7.955242472235113e-05,0.000427385326474905,-1.7623708117753267e-05
-3.567285602912307e-05,0.00027980617596767843,-2.659806705196388e-05
-5.7012704928638414e-05,0.00013025375665165484,-2.8766851755790412e-05
1.994824287976371e-06,4.75036576972343e-05,-2.454680361552164e-05
6.4799983192642685e-06,7.829436799511313e-05,-2.1005445887567475e-05
-8.557207183912396e-05,0.0002589659998193383,-2.49240874836687e-05
-0.00014767886023037136,0.0005282340571284294,-3.681265297927894e-05
-8.646037895232439e-05,0.000741475319955498,-5.199875158723444e-05
6.392089562723413e-05,0.0006884286412969232,-6.411434878828004e-05
0.00022286131570581347,0.0003269766748417169,-6.530095561174676e-05
0.0002953111252281815,-0.00015043452731333673,-5.31410587427672e-05
0.00032196068787015975,-0.0005974762607365847,-3.882048622472212e-05
0.0004118212091270834,-0.0009118137531913817,-3.35950571752619e-05
0.000477723078802228,-0.0009596253512427211,-3.822570215561427e-05
0.0003581534547265619,-0.0007089313585311174,-4.385722422739491e-05
0.00012374129437375814,-0.0004300242871977389,-4.352713585831225e-05
-5.525972301256843e-05,-0.00026836441247723997,-4.1013343434315175e-05
-0.00014454136544372886,-0.00013984354154672474,-3.665457188617438e-05
-0.00016290681378450245,1.6838617739267647e-05,-3.229589856346138e-05
-0.00014266370271798223,0.000297886406769976,-3.268717773607932e-05
-0.00013899787154514343,0.0005243798950687051,-3.3390904718544334e-05
-0.00017817590560298413,0.0004707193002104759,-2.672089249244891e-05
-0.00022368239297065884,0.00018807647575158626,-1.303920362261124e-05
-0.00023623490415047854,-0.0001459894992876798,2.6747925403469708e-06
-0.00021971591922920197,-0.0004099637735635042,1.128837357100565e-05
-0.00019780978618655354,-0.0004952818271704018,4.280220764485421e-06
-0.00016412061813753098,-0.00037634081672877073,-9.838156984187663e-06
-8.078279643086717e-05,-0.00019917699682991952,-1.586074722581543e-05
9.188971307594329e-05,-0.0001151638716692105,-1.3569766451837495e-05
0.0003130514232907444,-0.00013703237345907837,-1.1245161658735014e-05
0.0004405140061862767,-0.000147066981298849,-7.631956577824894e-06
0.0003866591432597488,-4.68996622657869e-05,-1.2244415756867966e-06
0.00024523588945157826,0.00013895219308324158,-1.1256531706749229e-06
0.00015459312999155372,0.00026133531355299056,-1.3564461369242053e-05
0.00012465631880331784,0.0002219735033577308,-3.078776353504509e-05
7.140677917050198e-05,7.366469071712345e-05,-3.841640500468202e-05
-7.367823855020106e-05,-5.32523772562854e-05,-3.022269083885476e-05
-0.0002993681118823588,-0.00011825186084024608,-1.2693177268374711e-05
-0.00045509685878641903,-0.00016287383914459497,-3.857159924791631e-07
-0.0003951576363760978,-0.00017479217785876244,1.9674564555316465e-06
-0.00019890363910235465,-0.00012885022442787886,-2.3199406768981135e-06
-2.9455357434926555e-05,-8.918103412725031e-05,-1.3085675163893029e-05
-2.9883269235142507e-05,-9.168034739559516e-05,-2.0774465156137012e-05
-0.00010686098539736122,-4.799370071850717e-05,-1.7483787814853713e-05
-0.00015550036914646626,9.137918095802888e-05,-1.387900465488201e-05
-0.0002589029318187386,0.00025038933381438255,-1.9823888578685e-05
-0.0003264861588831991,0.0003871680237352848,-3.380102862138301e-05
-0.00022091694700066,0.000493857020046562,-5.332383079803549e-05
5.5068463552743196e-05,0.0005628732033073902,-7.387954974547029e-05
0.00033679144689813256,0.0006141772610135376,-9.192192374030128e-05
0.0004756795533467084,0.000620888895355165,-0.00010118373756995425
0.00043692809413187206,0.0005120736896060407,-9.372577187605202e-05
0.00033183186315000057,0.0003008029598277062,-7.239476690301672e-05
0.0002678631863091141,6.80249577271752e-05,-5.128991324454546e-05
0.0002753965090960264,-0.00013868033420294523,-4.1801722545642406e-05
0.00033833051566034555,-0.0003073596453759819,-3.96071482100524e-05
0.00037870954838581383,-0.0004151476896367967,-3.400897912797518e-05
0.0003585420490708202,-0.00043421066948212683,-2.3455870177713223e-05
0.00031730480259284377,-0.00037304198485799134,-1.673292717896402e-05
0.00030281199724413455,-0.00026092646294273436,-2.0061888790223747e-05
0.0002886453876271844,-0.00012624914234038442,-3.063910116907209e-05
0.0002432326291454956,7.614442552039691e-07,-3.302801997051574e-05
0.00016571256855968386,8.718528260942549e-05,-1.059864825947443e-05
7.237355748657137e-05,0.00016530210268683732,2.5136638214462437e-05
-8.564880408812314e-05,0.00037154273013584316,4.528513818513602e-05
-0.000318142119795084,0.0006875360268168151,4.3983993236906826e-05
-0.000512204016558826,0.0007774147670716047,3.410714998608455e-05
-0.0005875241477042437,0.0004980704397894442,1.9066010281676427e-05
-0.0005667294608429074,-4.111736416234635e-05,-4.866360541200265e-06
-0.00044660057756118476,-0.0006286780117079616,-2.909720024035778e-05
-0.00025888666277751327,-0.0010239171097055078,-4.20468277297914e-05
-9.856996621238068e-05,-0.0010479093762114644,-3.585982631193474e-05
-5.061711635789834e-05,-0.0007352785905823112,-1.7439440853195265e-05
-0.00013242731802165508,-0.00040841326699592173,-1.5997517266441719e-06
-0.00024283798120450228,-0.0002603211032692343,7.776023267069831e-06
-0.0003466389898676425,-0.00028746708994731307,5.518900707102148e-06
-0.000496900815051049,-0.0003285831189714372,-1.0100239705934655e-05
-0.0005537875113077462,-0.00013206292351242155,-3.3646600059000775e-05
-0.0003551066038198769,0.0003885893092956394,-5.157136547495611e-05
0.00010032063437392935,0.000878585153259337,-5.4152031225385144e-05
0.0006243458483368158,0.0009693340980447829,-4.364917549537495e-05
0.000926291337236762,0.0006348399328999221,-2.897653575928416e-05
0.0009306621504947543,7.14101261110045e-05,-2.0416857296368107e-05
0.0008475022041238844,-0.0004214096406940371,-2.137783303624019e-05
0.0009255861514247954,-0.0005876928917132318,-3.044937147933524e-05
0.001116332015953958,-0.0003650516446214169,-4.494609675020911e-05
0.0011424339609220624,6.655594188487157e-05,-5.6291934015462175e-05
0.0008389127324335277,0.0004145530692767352,-5.7642555475467816e-05
0.00034050174872390926,0.0004919009516015649,-5.197408245294355e-05
-0.00011219711450394243,0.00037764268927276134,-4.186420846963301e-05
-0.00038191225030459464,0.00022940848430152982,-3.0133172913338058e-05
-0.0004923238884657621,0.000132703164126724,-2.0940460672136396e-05
-0.0005820904625579715,6.7135326389689e-05,-1.7835254766396247e-05
-0.00071886763907969,1.8729733710642904e-05,-2.018111990764737e-05
-0.0007526013650931418,-1.9802369934041053e-05,-3.072112667723559e-05
-0.0004691504000220448,-4.485401586862281e-05,-4.412321140989661e-05
-2.2912738131708466e-05,-6.07948186370777e-06,-4.649037146009505e-05
0.00019953482842538506,0.00010162437683902681,-4.159527088631876e-05
0.00014740953338332474,0.00015801757399458438,-3.639293572632596e-05
3.328748789499514e-05,0.00011679699673550203,-3.348355312482454e-05
1.9366043488844298e-06,4.171165346633643e-05,-2.9767010346404277e-05
2.5338033083244227e-05,-4.588305455399677e-05,-2.448310624458827e-05
5.671232065651566e-05,-0.00010523468517931178,-1.7799220586312003e-05
6.606964598177001e-05,-1.6488081655552378e-06,-8.53611982165603e-06
4.3233852920820937e-05,0.00022934420849196613,1.0381152151239803e-06
2.5244114567612996e-06,0.0003262616228312254,1.0275765816913918e-05
-6.073537588235922e-05,0.00012758681259583682,1.7223970644408837e-05
-0.0001644167787162587,-0.0002629499649628997,1.791819158825092e-05
-0.00023342740314546973,-0.0005456091603264213,9.928764484357089e-06
-0.0001511681330157444,-0.0005243741907179356,-4.246751359460177e-06
3.726805516635068e-05,-0.0002848019066732377,-1.9374670955585316e-05
0.00018900168652180582,-5.9975336625939235e-05,-3.0464274459518492e-05
0.00022865657228976488,-3.44980804811712e-07,-3.8789516111137345e-05
0.0002202655014116317,-0.00011187593918293715,-4.833096681977622e-05
0.00025042949710041285,-0.0002918195677921176,-5.917343878536485e-05
0.00033351362799294293,-0.00040290673496201634,-6.841224239906296e-05
0.0004110519657842815,-0.00034677921212278306,-7.643001299584284e-05
0.0004366438661236316,-0.00012912886450067163,-8.215636626118794e-05
0.00038938852958381176,0.00018915394321084023,-8.171105582732707e-05
0.00027553728432394564,0.00048819457879289985,-6.866325566079468e-05
0.00011200861627003178,0.0006155056180432439,-4.1291517845820636e-05
-5.966549724689685e-05,0.0005340854404494166,-1.2288039215491153e-05
-0.00020720722386613488,0.0003642651718109846,4.981170604878571e-06
-0.0002613512915559113,0.0002722159551922232,7.983888281160034e-06
-0.00019736065587494522,0.00020232082169968635,4.769009592564544e-06
-0.00011071262997575104,3.6163032746117096e-06,8.60069485497661e-06
-0.00013370761007536203,-0.00018023716984316707,1.9252491256338544e-05
-0.00023768524988554418,-0.00016459559265058488,2.320729981875047e-05
-0.0002785575925372541,4.520785660133697e-05,1.6631065591354854e-05
-0.00027877799584530294,0.00033212502603419125,8.720141522644553e-06
-0.0003703637339640409,0.0005107411998324096,3.4652532576728845e-06
-0.0006183552322909236,0.00044551119208335876,-1.7120980828622123e-06
-0.0008749064872972667,0.00018073318642564118,-8.803584933048114e-06
-0.0008705303771421313,-0.00013622209371533245,-1.358325516775949e-05
-0.0005062248674221337,-0.0003741373657248914,-1.2401275853335392e-05
1.8286966223968193e-05,-0.00036854794598184526,-1.0962967280647717e-05
0.0004576354112941772,-0.00011341948265908286,-1.184615848615067e-05
0.0007088254787959158,6.401159771485254e-05,-1.1961407835769933e-05
0.0007606882136315107,-0.00010634909995133057,-1.060610156855546e-05
0.0006077060825191438,-0.0005339261842891574,-1.4174408534017857e-05
0.0002929498441517353,-0.0009567667730152607,-2.3033873731037602e-05
-6.307455623755231e-05,-0.0011341270292177796,-3.280696182628162e-05
-0.0003238148055970669,-0.0009081308380700648,-4.3342595745343715e-05
-0.00044444354716688395,-0.00032933198963291943,-5.552750371862203e-05
-0.0004406705847941339,0.0003291519533377141,-6.297510844888166e-05
-0.0002071340277325362,0.0007467015529982746,-6.490329542430118e-05
0.0002686052757780999,0.000764288124628365,-6.835284875705838e-05
0.0007321435841731727,0.00047923807869665325,-6.736833165632561e-05
0.0009828637121245265,0.00016703559958841652,-5.540530037251301e-05
0.0009211566648446023,1.3796839994029142e-05,-3.910824307240546e-05
0.0005751563003286719,-7.447555958606245e-07,-3.05756984744221e-05
0.0001630840852158144,0.00012080459418939427,-2.5397755962330848e-05
-8.434103074250743e-05,0.0003874122048728168,-1.311545474891318e-05
-8.986036846181378e-05,0.0006283384864218533,-1.7907195797306485e-06
-3.387254400877282e-05,0.0006445475737564266,-3.1861964089330286e-06
-8.476704533677548e-05,0.0004299631982576102,-1.7222275346284732e-05
-0.000158626091433689,5.615223562926985e-05,-3.375514643266797e-05
-4.863870708504692e-05,-0.00033594106207601726,-4.7719411668367684e-05
0.00018001456919591874,-0.0006063390173949301,-6.14143573329784e-05
0.0002515530795790255,-0.000638045952655375,-7.097867637639865e-05
0.00011456150241428986,-0.00042223226046189666,-6.52930248179473e-05
-1.4820709111518227e-05,-9.795730875339359e-05,-4.254964005667716e-05
2.118080919899512e-05,0.00013712033978663385,-1.8512846509111114e-05
0.00013953883899375796,0.00018025495228357613,-1.0395857316325419e-05
0.00020544324070215225,9.951650281436741e-05,-1.691886609478388e-05
0.00019944924861192703,4.7690982682979666e-06,-1.8190265109296888e-05
0.00017032166942954063,-5.6433684221701697e-05,2.827945309036295e-06
0.00014358269982039928,-9.663745004218072e-05,3.7883688492001966e-05
0.00012143727508373559,-0.00010792614193633199,6.319476960925385e-05
0.00010822687909239903,-8.256539877038449e-05,6.625535024795681e-05
0.00013239558029454201,-2.8598757126019336e-05,5.109237099532038e-05
0.0002033976634265855,3.0212255296646617e-05,3.266902785981074e-05
0.0002674125717021525,9.68299136729911e-05,2.346957080590073e-05
0.00026295502902939916,0.0001424981892341748,1.9261524357716553e-05
0.0002135777467628941,0.0001339976879535243,7.363390068348963e-06
0.00016479188343510032,6.40218349872157e-05,-1.4428607755689882e-05
5.2395804232219234e-05,-3.650952203315683e-05,-3.4534401493147016e-05
-0.00022108483244664967,-0.0001245704770553857,-4.4224656448932365e-05
-0.0005458155646920204,-0.0001948510471265763,-4.873629586654715e-05
-0.0006773145869374275,-0.00017066614236682653,-4.699712008005008e-05
-0.0005344952223822474,1.8725839254329912e-05,-3.914684566552751e-05
-0.00024514424148947,0.00034258683444932103,-3.390426718397066e-05
2.9631471988977864e-05,0.0006824848242104053,-3.530267349560745e-05
0.00019204315321985632,0.000801560003310442,-4.4313019316177815e-05
0.00021541101159527898,0.0005915476358495653,-5.8231093134963885e-05
0.00014095021469984204,0.00017502560513094068,-7.32788976165466e-05
2.9597984394058585e-05,-0.00020476787176448852,-7.941993681015447e-05
-8.42479057610035e-05,-0.0004041737993247807,-7.01832614140585e-05
-0.00019148267165292054,-0.0004200796247459948,-5.6293472880497575e-05
-0.00024325348204001784,-0.0002858544758055359,-4.9580987251829356e-05
-0.0001440284977434203,-6.204211240401492e-05,-5.2877810958307236e-05
0.00010655065852915868,0.00014383828965947032,-6.235203181859106e-05
0.00033330172300338745,0.00024366268189623952,-6.817999383201823e-05
0.00035145660513080657,0.00022673860075883567,-6.245141412364319e-05
0.0001797829318093136,0.0001263669691979885,-4.9583864893065766e-05
-9.782705092220567e-06,1.1124192269562627e-06,-4.0423081372864544e-05
-0.00011897840158781037,-0.00011360848293406889,-3.748274320969358e-05
-0.00015480243018828332,-0.00012350572797004133,-3.5311186366016045e-05
-0.00010871599079109728,7.698022818658501e-05,-3.12492556986399e-05
-2.517470966267865e-05,0.00038199377013370395,-2.608848808449693e-05
-1.5461679140571505e-05,0.0005078949616290629,-2.0125671653659083e-05
-6.247735291253775e-05,0.00029681340674869716,-1.2920183507958427e-05
-5.894307378184749e-06,-0.00011370555148459971,-2.6351065116614336e-06
0.000242627618717961,-0.00048109787167049944,1.7799020497477613e-05
0.00040683161932975054,-0.0006753982743248343,3.401861613383517e-05
0.00022859274758957326,-0.000721293909009546,3.081453905906528e-05
-0.00013730420323554426,-0.000664832885377109,2.3541781047242694e-05
-0.000273385172476992,-0.0004370644164737314,2.306786336703226e-05
-3.0014532512723235e-06,-7.261387509061024e-05,2.375304939050693e-05
0.00027367298025637865,0.0002782370720524341,1.0747913620434701e-05
0.00024026722530834377,0.0004401780024636537,-9.443668204767164e-06
2.9163666113163345e-05,0.0003824460436590016,-2.291145756316837e-05
-7.7861848694738e-05,0.00018585661018732935,-2.7595517167355865e-05
-1.845485530793667e-05,-3.0501571018248796e-05,-3.0490064091281965e-05
6.206821126397699e-05,-0.00015112082473933697,-3.817483957391232e-05
3.324965655338019e-05,-0.0001308628125116229,-4.329986040829681e-05
-6.839921843493357e-05,-4.827515294891782e-05,-3.7668058212148026e-05
-0.00010008597018895671,-1.5008291484264191e-05,-2.4787885195109993e-05
-3.532241680659354e-05,0.00011543323489604518,-1.3835176105203573e-05
1.4212957466952503e-05,0.0005707591190002859,-7.90751710155746e-06
-1.0593953447823878e-05,0.0010844293283298612,-5.823431820317637e-06
4.847564014198724e-06,0.0010721582220867276,-7.70514270698186e-06
0.00015534645353909582,0.0004306705086492002,-1.575697388034314e-05
0.00034490975667722523,-0.0004971341695636511,-2.664237945282366e-05
0.00039139436557888985,-0.0013398739974945784,-3.6943249142495915e-05
0.00025486675440333784,-0.001753755146637559,-4.579339292831719e-05
9.339694952359423e-05,-0.001468781614676118,-4.725149119622074e-05
0.00013478638720698655,-0.000683660851791501,-3.4959131880896166e-05
0.000315139681333676,0.00010870277765206993,-2.051367482636124e-05
0.0003904520708601922,0.0006386147579178214,-1.8266833649249747e-05
0.00032867566915228963,0.0008265290525741875,-2.1831436242791824e-05
0.0002274526486871764,0.0006907816277816892,-2.2371728846337646e-05
6.14862801739946e-05,0.00044496942427940667,-2.5485232981736772e-05
-0.0001640404952922836,0.00024904723977670074,-3.136383384116925e-05
-0.00026544081629253924,0.00010614599159453064,-3.702770118252374e-05
-0.0001965338597074151,1.857984170783311e-05,-4.130058368900791e-05
-0.00011622875899774954,-1.9071627320954576e-05,-4.217286186758429e-05
-0.00017655592819210142,-2.1288831703714095e-05,-3.846393519779667e-05
-0.0003695933264680207,-1.4993134755059145e-05,-3.3142998290713876e-05
-0.0005391580052673817,-1.0991607268806547e-05,-3.079246744164266e-05
-0.0005514674121513963,-2.9436843760777265e-05,-2.8747333999490365e-05
-0.0004337762948125601,-3.824379382422194e-05,-2.1670359274139628e-05
-0.00028301129350438714,6.852868682472035e-05,-8.54008521855576e-06
-0.00011608457862166688,0.00030726147815585136,4.595205155055737e-06
0.00013424675853457302,0.0004723152087535709,9.820450031838845e-06
0.0004870370030403137,0.00035308345104567707,7.703486517129932e-06
0.0007654366199858487,3.5328100693732267e-06,8.360257197637111e-06
0.00077177828643471,-0.0003439991269260645,1.7229080185643397e-05
0.0005740499473176897,-0.0005114025552757084,2.245571158709936e-05
0.00043960378388874233,-0.00047839657054282725,4.523927600530442e-06
0.0004646298475563526,-0.0002987390907946974,-3.831362118944526e-05
0.0004911352298222482,-2.0663172108470462e-05,-8.520965639036149e-05
0.000404697610065341,0.0002893630007747561,-0.00011256748257437721
0.00024096315610222518,0.00046797897084616125,-0.0001145712667494081
2.9154218282201327e-05,0.00039890268817543983,-0.00010300466237822548
-0.00023030361626297235,0.00020157679682597518,-8.853815961629152e-05
-0.0005000321543775499,7.591723988298327e-05,-7.497965270886198e-05
-0.0007102077943272889,5.260473699308932e-05,-6.317473162198439e-05
-0.0007919251220300794,3.9307276892941445e-05,-5.539377889363095e-05
-0.0007296403055079281,3.378650944796391e-06,-4.464516314328648e-05
-0.0005313444999046624,-3.862317680614069e-05,-2.7392501579015516e-05
-0.00024879202828742564,-9.034697723109275e-05,-1.686448376858607e-05
1.952587263076566e-05,-0.00014288024976849556,-1.67864218383329e-05
0.00020909711020067334,-0.00015565154899377376,-2.2865460778120905e-05
0.0003223717212677002,-0.0001051903236657381,-2.7285655960440636e-05
0.00037946781958453357,-3.0804116249782965e-05,-2.9263406759127975e-05
0.00038910561124794185,2.202454925281927e-05,-2.679327553778421e-05
0.0003760359832085669,5.0401704356772825e-05,-1.896095091069583e-05
0.00032142832060344517,7.454889419022948e-05,-5.4161737352842465e-06
0.00016627187142148614,9.06445857253857e-05,7.877762982388958e-06
-5.42864108865615e-05,8.377750054933131e-05,1.3841604413755704e-05
-0.00020106558804400265,8.513595093972981e-05,1.3497468899004161e-05
-0.00020738737657666206,9.652829612605274e-05,1.259812961507123e-05
-0.00014117192768026143,5.440862514660694e-05,1.1879978956130799e-05
-8.223717304645106e-05,-4.217894820612855e-05,6.9993639044696465e-06
-5.7466193538857624e-05,-0.00011376417387509719,-4.762217713505379e-07
-7.058182382024825e-05,-0.00011814058234449476,-7.889618245826568e-06
-0.00010440155165269971,-1.2910604709759355e-05,-9.31573686102638e-06
-9.110558312386274e-05,0.00023813737789168954,-2.3286891064344672e-06
1.9193241314496845e-05,0.0004496471374295652,8.104801054287236e-06
0.0001566470309626311,0.0003913365362677723,1.530445115349721e-05
0.00022697796521242708,0.0001281797740375623,1.6253356079687364e-05
0.0002877999795600772,-0.00017595307144802064,9.455739927943796e-06
0.00039362499956041574,-0.00044379744213074446,-4.0662530409463216e-06
0.00039801420643925667,-0.000587108894251287,-1.829316170187667e-05
0.00015024171443656087,-0.00046551114064641297,-2.64328427874716e-05
-0.0001391660625813529,-0.0001466681424062699,-2.7854406653204933e-05
-0.00020726543152704835,0.00014899771485943347,-2.6165547751588747e-05
-0.00018023437587544322,0.0002808535937219858,-3.126988303847611e-05
-0.0002693856367841363,0.00024841525009833276,-3.654457032098435e-05
-0.000496764900162816,0.00015988749510142952,-3.720280437846668e-05
-0.0007175297942012548,8.480918040731922e-05,-3.597536851884797e-05
-0.0007391042308881879,5.624064215226099e-05,-4.005214213975705e-05
-0.0005133493687026203,0.00012626766692847013,-4.479620110942051e-05
-0.00015807151794433594,0.0003287800354883075,-4.260959030943923e-05
0.000243450966081582,0.0005127118201926351,-3.585864033084363e-05
0.0005779971834272146,0.0004896424943581223,-3.0957100534578785e-05
0.0007247641333378851,0.0002231804101029411,-3.2431336876470596e-05
0.0007288781926035881,-0.00015398299728985876,-3.612906948546879e-05
0.0006835079402662814,-0.00044116281787864864,-3.544546052580699e-05
0.0005675425636582077,-0.0005053855129517615,-2.52542995440308e-05
0.00034984067315235734,-0.0003778106183744967,-1.081363734556362e-05
0.00013315958494786173,-0.00021002357243560255,7.037679097265936e-07
3.0816263461019844e-05,-8.290431287605315e-05,9.099288149627682e-07
1.5586516383336857e-05,3.3950545912375674e-05,-9.618562216928694e-06
-3.443684909143485e-05,8.521913696313277e-05,-2.542545917094685e-05
-0.00014354122686199844,-4.433166395756416e-05,-3.57945536961779e-05
-0.0002008973970077932,-0.00025821663439273834,-3.5582783311838284e-05
-0.00010300063149770722,-0.00037484485073946416,-2.9970897230668925e-05
7.765354530420154e-05,-0.0003552031412255019,-2.5294539227616042e-05
0.0002156319678761065,-0.00028310256311669946,-2.5392957468284294e-05
0.00027483649319037795,-0.00023241933376993984,-2.7953727112617344e-05
0.0002724285877775401,-0.00017046531138475984,-3.221894075977616e-05
0.0002761468931566924,-2.2485259250970557e-05,-4.2393610783619806e-05
0.0003134440630674362,0.00017305054643657058,-4.378010271466337e-05
0.0003214603348169476,0.00023983510618563741,-3.186491449014284e-05
0.00024719879729673266,0.0001390568068018183,-2.245950418000575e-05
0.00014524722064379603,0.00023298613086808473,-2.5956758690881543e-05
0.00010090957948705181,0.0005521581624634564,-3.456055128481239e-05
9.300082456320524e-05,0.0006960752652958035,-4.01283978135325e-05
5.4604381148237735e-05,0.0005159302963875234,-4.4442775106290355e-05
-3.787970854318701e-05,6.43270686850883e-05,-4.6505174395861104e-05
-0.0001656370295677334,-0.000484831485664472,-4.637343226931989e-05
-0.0002439918025629595,-0.000856175902299583,-4.366708890302107e-05
-0.00019059496116824448,-0.0008037437219172716,-3.974445644416846e-05
-2.5339058993267827e-05,-0.0003775481309276074,-3.6545025068335235e-05
0.00013293804659042507,0.00012564370990730822,-3.576512972358614e-05
0.00019599898951128125,0.0004407420929055661,-3.632887455751188e-05
0.00019676299416460097,0.0004865138325840235,-3.620487041189335e-05
0.00020452453463803977,0.0003439410065766424,-3.1754450901644304e-05
0.00018849813204724342,0.00018285575788468122,-2.396203672105912e-05
7.529166032327339e-05,0.00011565579916350543,-1.5476587577722967e-05
-0.00012171004345873371,0.00011346070095896721,-7.590109362354269e-06
-0.00028148575802333653,0.0001120704910135828,-1.5163368516368791e-06
-0.0002818300563376397,9.786723239813e-05,2.0577576833602507e-06
-0.00015253583842422813,8.211327804019675e-05,2.2290917058853665e-06
-2.1003705114708282e-05,6.055346966604702e-05,1.7869690509542124e-06
2.1757921786047518e-05,3.3190208341693506e-05,5.63502726436127e-06
-1.3905396372138057e-05,-9.366537597088609e-06,1.3285730346979108e-05
-4.058859121869318e-05,-5.966666140011512e-05,1.8931903468910605e-05
5.560438012253144e-07,-7.997158536454663e-05,1.7005811969283968e-05
5.38234889972955e-05,-3.5597968235379085e-05,1.1314960829622578e-05
5.102676004753448e-05,2.1694195311283693e-05,4.591584001900628e-06
6.551542901434004e-05,2.0314375433372334e-05,-5.240025984676322e-06
0.00016655883518978953,-4.2303836380597204e-05,-1.8337916117161512e-05
0.00026213424280285835,-0.00010666336311260238,-3.1639818189432845e-05
0.0002296507591381669,-0.00011169285426149145,-4.1265349864261225e-05
9.515126293990761e-05,-3.089476012974046e-05,-4.823210838367231e-05
-4.520070433500223e-05,0.00010325029870728031,-5.987476106383838e-05
-0.0002047276502707973,0.00019963995146099478,-6.940098683116958e-05
-0.0004145059210713953,0.00023009140568319708,-6.49983121547848e-05
-0.0006034313119016588,0.0002858406805898994,-5.0695165555225685e-05
-0.0006790469051338732,0.0004953057505190372,-3.3582342439331114e-05
-0.0006337741506285965,0.0008016463252715766,-1.2559769857034553e-05
-0.0004925740067847073,0.0008866193238645792,1.0584905794530641e-05
-0.0002980124845635146,0.000542441091965884,2.4683662559255026e-05
-0.0001366114738630131,-7.128827564883977e-05,2.8059961550752632e-05
-2.4956290872069076e-05,-0.0006643654778599739,2.5558505512890406e-05
0.00016935607709456235,-0.0010488858679309487,1.6603462427156046e-05
0.00045810744632035494,-0.0010956359328702092,1.1619119959505042e-06
0.000668649619910866,-0.0007658645627088845,-1.0574897714832332e-05
0.0007126374403014779,-0.00022134915343485773,-1.1424667718529236e-05
0.0006203269003890455,0.00021956099953968078,-1.1578738849493675e-05
0.0004249981138855219,0.00027156551368534565,-2.559577114880085e-05
0.00016180708189494908,-4.089913272764534e-05,-4.4778516894439235e-05
3.196644684066996e-05,-0.00039722464862279594,-5.477581362356432e-05
0.0001328388025285676,-0.0003993962309323251,-5.888978921575472e-05
0.00026775107835419476,-6.936856516404077e-05,-6.502083851955831e-05
0.00033435170189477503,0.00020398756896611303,-7.271231879713014e-05
0.0003608088009059429,0.0002532357757445425,-7.552992610726506e-05
0.00024928865605033934,0.00017822469817474484,-7.323747558984905e-05
-5.2540595788741484e-05,0.00012316915672272444,-6.842231232440099e-05
-0.0003937853325624019,0.00010314904648112133,-6.189811392687261e-05
-0.000638544384855777,0.00011335379531374201,-5.4197051213122904e-05
-0.0007725136820226908,0.0001331392995780334,-4.3884312617592514e-05
-0.0007220279076136649,0.00014287183876149356,-3.443106106715277e-05
-0.00046463237958960235,0.00013557406782638282,-3.319722236483358e-05
-0.00015979890304151922,0.00011297959281364456,-4.401720434543677e-05
5.0796301366062835e-05,8.415996853727847e-05,-5.58095307496842e-05
0.00022148048446979374,5.659867747453973e-05,-5.6680564739508554e-05
0.00043993681902065873,2.9303957489901222e-05,-5.061239789938554e-05
0.0006003172602504492,-1.720933687465731e-05,-4.7198122047120705e-05
0.0005578044801950455,-8.956285455496982e-05,-4.416469528223388e-05
0.00035389515687711537,-0.00018512498354539275,-3.218029814888723e-05
0.00017334245785605162,-0.00026502981199882925,-1.0698492587835062e-05
0.00010429508984088898,-0.0002773833984974772,1.3401337128016166e-05
7.547640416305512e-05,-0.0001856009621405974,3.163455403409898e-05
1.6997899365378544e-05,-1.9209908714401536e-05,4.080490180058405e-05
-3.3837561204563826e-05,0.00014176589320413768,4.539447036222555e-05
1.3554782526625786e-05,0.00019786745542660356,5.317987597663887e-05
0.00021843497233930975,0.00020821070938836783,6.344912253553048e-05
0.00044284516479820013,0.0002750950225163251,6.656238838331774e-05
0.0005153939709998667,0.0002819342480506748,5.3422991186380386e-05
0.0004272448131814599,0.00014668740914203227,2.6176228857366368e-05
0.0002603427565190941,-1.6335779946530238e-05,1.293497462029336e-06
0.00010688826296245679,-0.00010613784979796037,-1.2898510249215178e-05
5.178026185603812e-05,-8.005301060620695e-05,-2.56145722232759e-05
0.00010339815344195813,2.760975439741742e-05,-4.173099296167493e-05
0.00010958842904074118,0.00011936727241845801,-5.710675031878054e-05
-4.5210232201498e-05,0.00013711255451198667,-6.450524233514443e-05
-0.00025977514451369643,0.00010722563456511125,-6.620375643251464e-05
-0.0003140596963930875,5.904751378693618e-05,-6.742765253875405e-05
-0.00015845996676944196,-6.176212082209531e-06,-7.057183393044397e-05
6.556335574714467e-05,-5.85197085456457e-05,-7.049327541608363e-05
0.0002150800864910707,-5.857078213011846e-05,-6.363557622535154e-05
0.00025378656573593616,-1.4069440112507436e-05,-5.364776006899774e-05
0.00021793239284306765,3.452275996096432e-05,-4.44207398686558e-05
0.00015400514530483633,5.568443157244474e-05,-3.546347943483852e-05
7.739534339634702e-05,3.328105958644301e-05,-2.654615127539728e-05
-2.225390198873356e-05,-1.953866012627259e-05,-2.0267796571715735e-05
-0.00014224395272322,-3.7161567888688296e-05,-1.5503106624237262e-05
-0.0002809793222695589,0.00012363138375803828,-1.3220272194303107e-05
-0.00043661613017320633,0.0004815548309125006,-1.4715565157530364e-05
-0.0005538135301321745,0.0007244928274303675,-1.903392512758728e-05
-0.0005208586226217449,0.0005477697122842073,-2.6285617423127405e-05
-0.0003257655189372599,1.880258059827611e-05,-3.797679892159067e-05
-0.00010726180335041136,-0.0005905021098442376,-4.803355113836005e-05
2.3155509552452713e-05,-0.0010098007041960955,-4.794106644112617e-05
8.243145566666499e-05,-0.001131041324697435,-3.8704230973962694e-05
0.00014080360415391624,-0.0009562547202222049,-3.727669172803871e-05
0.00021598058810923249,-0.0005575030227191746,-4.0700891986489296e-05
0.00023903224791865796,5.4397132771555334e-05,-3.3280335628660396e-05
0.00022793577227275819,0.0007722048903815448,-2.4372875486733392e-05
0.00024915512767620385,0.0011424807598814368,-2.648556801432278e-05
0.0002764085365924984,0.0009359527030028403,-2.997657429659739e-05
0.00025602171081118286,0.0003854801179841161,-2.2170677766553126e-05
0.00016836430586408824,-0.00021594561985693872,-9.185990165860858e-06
4.459883348317817e-05,-0.0006470883381552994,-3.6275694128562463e-06
-4.181436088401824e-05,-0.0006594003643840551,-7.920440111774951e-06
-4.403791899676435e-05,-0.00025903095956891775,-1.3374710761127062e-05
-1.148257160821231e-05,0.00016674192738719285,-1.3902716091251932e-05
-4.6843661039019935e-06,0.0003003636375069618,-1.2098719707864802e-05
-1.3698090697289445e-05,0.0001476763136452064,-1.0231394298898522e-05
9.088471415452659e-07,-0.00011978488328168169,-5.4211682254390325e-06
3.411641955608502e-05,-0.00032648624619469047,4.699535566032864e-06
3.794120857492089e-05,-0.00037601127405650914,1.910470746224746e-05
-3.105348878307268e-05,-0.0002875223581213504,3.166564420098439e-05
-0.00016434339340776205,-0.00012601850903593004,3.351172199472785e-05
-0.00033980270382016897,5.72682693018578e-05,2.339974707865622e-05
-0.0005607657367363572,0.00021073644165880978,1.3136412235326134e-05
-0.0007197177037596703,0.00028720463160425425,7.448791620845441e-06
-0.0006559913163073361,0.0002735771413426846,-4.6130953705869615e-06
-0.0004130266315769404,0.00018174253636971116,-2.206909812230151e-05
-0.00010509037383599207,3.907638165401295e-05,-3.608923725550994e-05
0.00025131451548077166,-9.161180787486956e-05,-4.822439223062247e-05
0.0006688737776130438,-0.00012784224236384034,-5.5300068197539076e-05
0.0010560557711869478,-5.121369758853689e-05,-5.2310992032289505e-05
0.00105554040055722,6.280444358708337e-05,-4.536972483037971e-05
0.0006204367964528501,0.00016115586913656443,-4.1102030081674457e-05
0.00016406016948167235,0.00024691366706974804,-4.076116601936519e-05
-7.010465196799487e-05,0.0002681456971913576,-4.572920443024486e-05
-0.00012704702385235578,0.00020644281175918877,-5.079825496068224e-05
-0.00011791738506872207,0.0001224933803314343,-4.6078628656687215e-05
-3.841931538772769e-05,2.1632416974171065e-05,-3.089187157456763e-05
8.747289393795654e-05,-9.248101559933275e-05,-1.7460642993682995e-05
0.00021672372531611472,-0.00014359698980115354,-1.186584177048644e-05
0.0003429509524721652,-9.27643632167019e-05,-6.6690136009128764e-06
0.0004634037904907018,1.5961732060532086e-05,-2.2766290896925057e-07
0.0004537974891718477,0.00011703262134687975,3.6956341773475287e-06
0.0002168873616028577,0.00018114905105903745,5.0901289796456695e-06
-7.666043529752642e-05,0.00020897563081234694,6.5942417677433696e-06
-0.00017616931290831417,0.00017966385348699987,6.351650426950073e-06
-6.583544745808467e-05,7.047106191748753e-05,6.793035822738602e-07
7.296175317605957e-05,-8.598490967415273e-05,-1.1046276995330118e-05
0.00013239137479104102,-0.0002051054034382105,-2.0885951016680337e-05
0.0001544029073556885,-0.00023103298735804856,-2.1236548491287977e-05
0.00023165883612819016,-0.0001744011096889153,-1.7924723579199053e-05
0.00034845175105147064,-9.812073403736576e-05,-1.8693010133574717e-05
0.00040824158350005746,-5.564756793319248e-05,-2.361022234254051e-05
0.00033444896689616144,-2.4132019461831078e-05,-2.81404336419655e-05
0.00010185886640101671,5.506439265445806e-05,-2.920066071965266e-05
-0.0002726925304159522,0.00020848869462497532,-2.8833388569182716e-05
-0.0006245887489058077,0.0003989900869783014,-3.2338510209228843e-05
-0.0007926787948235869,0.0005250399117358029,-4.313150202506222e-05
-0.0007070316351018846,0.0004953030729666352,-5.6656183005543426e-05
-0.00042746643885038793,0.0002670618414413184,-6.409233174053952e-05
-0.00010536329500610009,-8.482024713885039e-05,-5.978760964353569e-05
0.00011271642142673954,-0.00036096482654102147,-4.17092269344721e-05
0.00013493557344190776,-0.0004412158450577408,-2.1369975002016872e-05
-8.593407983426005e-06,-0.0003683782124426216,-1.1503298082971014e-05
-0.00015114386042114347,-0.00022352335508912802,-1.014290774037363e-05
-0.00014215784904081374,-7.042766083031893e-05,-1.1667438229778782e-05
-7.032395660644397e-05,3.741679756785743e-05,-1.534126204205677e-05
-1.5698931747465394e-05,7.210043258965015e-05,-2.0655241314671002e-05
4.877254832535982e-05,4.3625335820252076e-05,-2.4897537514334545e-05
0.00013122812379151583,5.539227640838362e-05,-2.9727554647251964e-05
0.00019063602667301893,0.00019076128955930471,-3.711885801749304e-05
0.0002105311577906832,0.0003081410250160843,-4.355778219178319e-05
0.0002070650807581842,0.00022014862042851746,-4.4069169234717265e-05
0.0002003497793339193,-5.908645471208729e-05,-3.886910417350009e-05
0.00021106380154378712,-0.000398041243897751,-3.3198441087733954e-05
0.00024070049403235316,-0.000666186329908669,-3.0092707675066777e-05
0.000252018216997385,-0.0006979164900258183,-3.2388204999733716e-05
0.00017708570521790534,-0.00039328154525719583,-4.035003075841814e-05
2.2876623916090466e-05,5.821574086439796e-05,-4.570252349367365e-05
-0.0001233396615134552,0.0003421742294449359,-4.370339956949465e-05
-0.0001973652542801574,0.0003501025203149766,-4.341490421211347e-05
-0.00015775953943375498,0.00017775967717170715,-5.4552307119593024e-05
5.309924017637968e-05,-2.0167337424936704e-05,-6.769051105948165e-05
0.0003355089866090566,-0.00011238712613703683,-6.261113594518974e-05
0.000536724051926285,-8.075449295574799e-05,-3.425612158025615e-05
0.0005607000202871859,-1.479369711887557e-05,-1.0115862096427009e-05
0.00041561087709851563,1.832330417528283e-05,-1.1285205800959375e-05
0.00018203062063548714,3.725810893229209e-05,-2.7417365345172584e-05
-6.753708294127136e-05,0.00012311784666962922,-4.06788858526852e-05
-0.00020886221318505704,0.0003653370076790452,-4.380329482955858e-05
-0.00022136361803859472,0.0007686326280236244,-4.285317481844686e-05
-0.00017033808398991823,0.001022420241497457,-4.429809268913232e-05
-0.00015378178795799613,0.0008255990105681121,-4.676938260672614e-05
-0.00021892810764256865,0.0002878590312320739,-3.5873952583642676e-05
-0.000282478635199368,-0.00035458820639178157,-1.4935607396182604e-05
-0.00018461859144736081,-0.000866484479047358,1.2640248314710334e-06
4.492339212447405e-05,-0.0010276807006448507,5.4430820455309e-06
0.00019652940682135522,-0.00073852832429111,1.0394913942946005e-06
0.00011508919124025851,-0.00020119502732995898,-8.443852493655868e-06
-0.00016857888840604573,0.00021727525745518506,-2.0432056771824136e-05
-0.00043975841253995895,0.0003117724263574928,-2.873957055271603e-05
-0.0004990996676497161,0.00014751427806913853,-3.170911077177152e-05
-0.0003261309757363051,-3.762070627999492e-05,-3.00257743219845e-05
-5.27600095665548e-05,-5.71693126403261e-05,-2.7763613616116345e-05
0.0001655743835726753,4.2249383113812655e-05,-2.330788083781954e-05
0.00019522166985552758,9.79360265773721e-05,-1.3815438251185697e-05
7.919355994090438e-05,7.768814248265699e-05,-6.289536713666166e-07
4.0465911297360435e-05,6.948714144527912e-05,4.897609869658481e-06
0.00017971894703805447,0.00011866110435221344,-4.308228653826518e-06
0.0002823428367264569,0.000145049300044775,-9.655306712375022e-06
0.00018810806795954704,0.00010571570601314306,6.414003564714221e-06
-7.751294469926506e-05,5.5044311011442915e-05,3.103751805610955e-05
-0.0002929384645540267,5.015624265070073e-05,3.448053394095041e-05
-0.0002492604253347963,4.6797970298939617e-07,1.0566528544586617e-05
-8.749774133320898e-05,-0.00013640635006595403,-1.3621693142340519e-05
-2.517953544156626e-05,-0.00022824149345979095,-2.5503100914647803e-05
-7.272756192833185e-05,-0.00020335263980086893,-3.147156894556247e-05
-2.6318632080801763e-05,-8.568749035475776e-05,-3.5163004213245586e-05
0.00022897624876350164,6.160000339150429e-05,-3.034138171642553e-05
0.0005418569780886173,0.00018407028983347118,-2.0119516193517484e-05
0.0006901437882333994,0.00024224072694778442,-1.0784972801047843e-05
0.0006252930616028607,0.0002365210239076987,-5.086192231829045e-06
0.00044908601557835937,0.00016223829879891127,-3.901479431078769e-06
0.0002761948562692851,3.882043074554531e-06,-5.923583103140118e-06
0.0001766974455676973,-0.0001831709814723581,-7.48646016290877e-06
0.00020370626589283347,-0.0002853639598470181,-7.1216104515769985e-06
0.000341876526363194,-0.00024295102048199624,-9.62082776823081e-06
0.0004448109830264002,-0.00014285296492744237,-1.6501073332619853e-05
0.0003743791894521564,-0.00011156901746289805,-2.938735269708559e-05
0.00017536929226480424,-9.331753972219303e-05,-4.878932668361813e-05
-1.653569415793754e-05,0.0001161534819402732,-6.865138129796833e-05
-0.00016052376304287463,0.00045538684935308993,-7.614267087774351e-05
-0.0002089065092150122,0.0005985404131934047,-7.369610102614388e-05
-9.53699418460019e-05,0.00039095565443858504,-7.076023030094802e-05
8.993385563371703e-05,-3.0262932341429405e-05,-6.645474786637351e-05
0.00018807104788720608,-0.00044514593901112676,-5.7739052863325924e-05
0.00010733113595051691,-0.000660030753351748,-4.872999124927446e-05
-7.395169086521491e-05,-0.0005919586401432753,-4.052195436088368e-05
-0.00020623079035431147,-0.0002949215704575181,-3.60124722647015e-05
-0.00023802375653758645,1.7849011783255264e-05,-3.63940343959257e-05
-0.0001849563413998112,0.00017629907233640552,-3.620031930040568e-05
-0.0001145184287452139,0.00020478136138990521,-3.95634924643673e-05
-5.5525157222291455e-05,0.0001597922237124294,-4.6709068556083366e-05
-2.5601821107557043e-05,0.00011524242290761322,-4.574091508402489e-05
-3.945277421735227e-05,8.151727524818853e-05,-3.9190428651636466e-05
-9.863847662927583e-05,6.402432336471975e-05,-3.3103508030762896e-05
-0.00018911749066319317,6.0504080465761945e-05,-2.8250287869013846e-05
-0.0003145952650811523,5.482281994773075e-05,-2.2999623979558237e-05
-0.00039317377377301455,2.3423797756549902e-05,-1.888054066512268e-05
-0.0003089423116762191,-4.4136745600553695e-06,-1.9735847672563978e-05
-5.8076981076737866e-05,-1.1723950592568144e-05,-2.6091671315953135e-05
0.0002618425351101905,-2.7381092877476476e-05,-3.604708399507217e-05
0.0005335731548257172,-3.054848639294505e-05,-4.128694854443893e-05
0.0006767372251488268,6.343375571304932e-05,-3.5904588003177196e-05
0.0006021205917932093,0.0002504478325136006,-2.1286488845362328e-05
0.00030074361711740494,0.0003350676270201802,-3.596504029701464e-06
-4.537625136435963e-05,0.0002115196839440614,9.034864888235461e-06
-0.00018345161515753716,2.7386975489207543e-05,1.0469269909663126e-05
-0.00010780132288346067,-4.1286126361228526e-05,5.324166522768792e-06
-1.8096458006766625e-05,-2.9556207664427347e-05,-1.1145550615765387e-06
-4.744711623061448e-05,-3.117333835689351e-05,-7.186472885223338e-06
-0.00018624382209964097,-5.502587737282738e-05,-3.4029976632155012e-06
-0.0003970738034695387,-2.9596380045404658e-05,9.511322787147947e-06
-0.0005347214755602181,5.574374517891556e-05,1.161240925284801e-05
-0.0004930261056870222,0.00011806654947577044,-4.670701855502557e-06
-0.0003899399016518146,0.00010923561058007181,-3.0840779800200835e-05
-0.00033690372947603464,4.925077882944606e-05,-4.3782023567473516e-05
-0.0002292888384545222,-6.703594408463687e-05,-3.7088830140419304e-05
4.1439499909756705e-05,-0.00019647847511805594,-2.5735364033607766e-05
0.00036991896922700107,-0.00022944220108911395,-1.6327416233252734e-05
0.0005399037036113441,-0.0001431388664059341,1.748306090121332e-06
0.000457055342849344,-2.98573595500784e-05,2.769457751128357e-05
0.00024064192257355899,1.0457326425239444e-05,3.361982089700177e-05
5.4428081057267264e-05,-5.013671034248546e-05,1.4919077329977881e-05
-2.9051541787339374e-05,-0.00016883271746337414,-3.8159250834723935e-06
-3.828257104032673e-05,-0.00019429750682320446,-3.913449290848803e-06
6.745886639691889e-05,-5.359391707315808e-06,6.27768622507574e-06
0.00027526888879947364,0.0002859068044926971,1.3683112229045946e-05
0.0004202062264084816,0.0004910050774924457,1.3255812518764287e-05
0.00039378239307552576,0.0005185158806852996,2.487225401637261e-06
0.00022943661315366626,0.0003766448062378913,-1.8063765310216695e-05
-9.812466487346683e-06,0.00012387821334414184,-4.000038461526856e-05
-0.00024074770044535398,-0.00014163354353513569,-4.952862218488008e-05
-0.0003359460097271949,-0.00029173961956985295,-4.523586903815158e-05
-0.0002824465336743742,-0.00027809705352410674,-4.172274930169806e-05
-0.00016135659825522453,-0.00017208665667567402,-4.6323741116793826e-05
1.638111370994011e-07,-7.679413829464465e-05,-5.605429760180414e-05
0.00018065008043777198,-3.1120867788558826e-05,-6.795427179895341e-05
0.00032159232068806887,-1.7663858670857735e-05,-7.254390948219225e-05
0.000402493606088683,5.0716962505248375e-06,-7.013994036242366e-05
0.00046428394853137434,2.1569694581557997e-05,-7.024752267170697e-05
0.000497573462780565,2.412903086224105e-06,-7.133081089705229e-05
0.00036724895471706986,-1.9970579160144553e-05,-6.21322396909818e-05
0.0001352770341327414,-7.287689641088946e-06,-3.913530599675141e-05
-5.548940862354357e-06,1.7734962966642343e-05,-9.111188774113543e-06
-1.3692761058337055e-05,2.320642670383677e-05,7.304518931050552e-06
3.597734757931903e-05,5.1033866839134134e-06,1.6511156673004734e-06
3.5185971682949457e-06,-1.7504487914266065e-05,-1.1559908671188168e-05
-0.0001346122589893639,-1.8411536075291224e-05,-2.2716960302204825e-05
-0.00023578392574563622,-5.29468735521732e-08,-2.8011532776872627e-05
-0.00021042847947683185,8.401711966143921e-06,-3.007103987329174e-05
-0.0001498200581409037,8.881912435754202e-06,-2.9799595722579397e-05
-0.00013972869783174247,1.866814636741765e-05,-2.6609764972818084e-05
-0.00015847294707782567,2.773458072624635e-05,-2.4795226636342704e-05
-0.00011177004489582032,1.505276213720208e-05,-2.745554957073182e-05
2.5254306819988415e-05,-1.4342367649078369e-05,-2.9269289370859042e-05
0.00019058957695960999,-3.377754910616204e-05,-2.57831925409846e-05
0.00031522518838755786,-1.787068322300911e-05,-2.1665140593540855e-05
0.0003441742155700922,4.495630491874181e-05,-2.5285311494371854e-05
0.00026227181660942733,0.00014892659964971244,-3.680550798890181e-05
0.00011825680849142373,0.00029366568196564913,-4.7788471420062706e-05
-8.073534445429686e-06,0.00042354685137979686,-5.661549948854372e-05
-7.527722482336685e-05,0.00037732202326878905,-6.571741687366739e-05
-6.178851617733017e-05,0.00011097693641204387,-6.748919258825481e-05
9.3407807071344e-06,-0.00018163443019147962,-5.253529525361955e-05
7.452437421306968e-05,-0.00031429462251253426,-2.642212712089531e-05
0.00011013262701453641,-0.0003133714781142771,-7.019670533736644e-07
0.00013930197746958584,-0.0002006465510930866,2.0316083464422263e-05
0.00015865146997384727,7.293569069588557e-05,3.714703780133277e-05
0.00018140053725801408,0.0003234452451579273,5.0710375944618136e-05
0.0001950412115547806,0.0003283561673015356,5.170809163246304e-05
0.00015623844228684902,0.00011226131027797237,3.4982251236215234e-05
5.139750282978639e-05,-0.000200217284145765,9.712697647046298e-06
-0.00011772770812967792,-0.00044574870844371617,-1.7190151993418112e-05
-0.0002753546868916601,-0.00047559652011841536,-3.870190994348377e-05
-0.0003696985659189522,-0.0002674133575055748,-4.9978712922893465e-05
-0.0004052337899338454,0.0002035002107731998,-5.2225492254365236e-05
-0.000389513821573928,0.0006649467395618558,-5.0775197451002896e-05
-0.00038434978341683745,0.0007314812391996384,-4.4775053538614884e-05
-0.00044747567153535783,0.0003893099201377481,-3.5675591789186e-05
-0.0004815144930034876,-0.00013562948151957244,-2.5198616640409455e-05
-0.00029133635689504445,-0.0006187607650645077,-1.041829091263935e-05
8.925873407861218e-05,-0.0008920782711356878,6.7360742832534015e-06
0.00041502233943901956,-0.0008329348056577146,1.3017634955758695e-05
0.0005184676265344024,-0.0005006981082260609,1.4852258800601703e-06
0.00045214759302325547,-9.550123650114983e-05,-1.4698474842589349e-05
0.0003408471529837698,0.00018089664808940142,-2.751308238657657e-05
0.00021331339667085558,0.0002497366222087294,-4.140331657254137e-05
8.36457111290656e-05,0.0001886030804598704,-5.4888187150936574e-05
4.277805419405922e-05,0.00015868736954871565,-5.9302416048012674e-05
0.00010806541104102507,0.00022354628890752792,-5.6005494116107e-05
0.00019027154485229403,0.00032135387300513685,-5.039803727413528e-05
0.0002754103625193238,0.00035006419057026505,-4.429177715792321e-05
0.0003624716482590884,0.0002648720401339233,-4.237615939928219e-05
0.00036411118344403803,0.00012682956003118306,-4.558106229524128e-05
0.00026266297209076583,4.083192106918432e-05,-4.32260894740466e-05
0.00014276959700509906,2.200374729000032e-05,-2.777008558041416e-05
-2.1559253582381643e-05,2.251644582429435e-05,-8.73912540555466e-06
-0.0002673476410564035,4.218003959977068e-05,2.7477724415803095e-06
-0.00048568868078291416,0.00011261126201134175,8.968610927695408e-06
-0.0005870243185199797,0.0002050095790764317,1.1031971553165931e-05
-0.0005932499771006405,0.00023353385040536523,1.2411559509928338e-05
-0.0005018507363274693,0.00015375895600300282,9.914557267620694e-06
-0.0003008861094713211,-1.6157684967765817e-06,-3.4348709050391335e-06
-1.1700560207827948e-05,-0.0001413622812833637,-2.171577580156736e-05
0.0003188594419043511,-0.00015907076885923743,-3.168022522004321e-05
0.0005290175322443247,-4.785541750607081e-05,-3.150514021399431e-05
0.00046283076517283916,5.0635397201403975e-05,-3.361156632308848e-05
0.00024811160983517766,6.491675594588742e-05,-4.612906195688993e-05
0.00016847762162797153,5.020500248065218e-05,-6.124523497419432e-05
0.00032308787922374904,-2.698529669942218e-06,-6.750100874342024e-05
0.0005725724040530622,-0.00014672058750875294,-6.334575300570577e-05
0.0007397765875793993,-0.0002840864472091198,-5.426138886832632e-05
0.0007349114748649299,-0.0002882991102524102,-4.642880230676383e-05
0.0005649745580740273,-0.00021267429110594094,-4.091471419087611e-05
0.0003294016933068633,-0.00014336456661112607,-3.427214323892258e-05
0.00013013659918215126,-4.537780114333145e-06,-2.2224558051675558e-05
-1.427493589289952e-05,0.0002764456148725003,-1.0727169865276664e-05
-0.0001035331588354893,0.0005183620960451663,-5.75130161450943e-06
-0.00010650524927768856,0.00042306771501898766,-7.392320640065009e-06
-2.1659563572029583e-05,1.1634635939117288e-06,-1.1785041351686232e-05
0.00010275488602928817,-0.0004396724980324507,-1.5136571164475754e-05
0.0001909503771457821,-0.0006394146475940943,-1.7572772776475176e-05
0.0002206454664701596,-0.0004891270655207336,-1.9129394786432385e-05
0.0001787958899512887,-0.00011029934830730781,-1.775616874510888e-05
5.190119190956466e-05,0.00022074970183894038,-1.460572184441844e-05
-0.0001154609490185976,0.0003646301047410816,-1.2383939065330196e-05
-0.00019986247934866697,0.00034075084840878844,-1.4254517736844718e-05
-0.0001531090820208192,0.0002098047552863136,-2.0063785996171646e-05
-9.719759691506624e-05,6.128524546511471e-05,-2.386412597843446e-05
-0.0001922582450788468,-3.389299672562629e-05,-2.275871520396322e-05
-0.0005264730425551534,-6.465135811595246e-05,-2.029949246207252e-05
-0.000942788552492857,-3.127555100945756e-05,-1.7353679140796885e-05
-0.001174200908280909,4.109709334443323e-05,-1.3131001651345287e-05
-0.0011146457400172949,0.00015630533744115382,-9.8734699349734e-06
-0.0008546572644263506,0.0003552706621121615,-8.546042408852372e-06
-0.0005538376863114536,0.0005304280784912407,-7.666385499760509e-06
-0.00025263515999540687,0.0004610413161572069,-6.70814642944606e-06
0.00010176925570704043,0.00011569523485377431,-1.0036439562099986e-05
0.0004971860907971859,-0.00031909436802379787,-2.02424889721442e-05
0.0008471376495435834,-0.0006629795534536242,-3.232391463825479e-05
0.001032179920002818,-0.0008206110796891153,-4.020335109089501e-05
0.0009420547867193818,-0.000734523986466229,-4.544045077636838e-05
0.0006293698097579181,-0.00042984445462934673,-4.860714398091659e-05
0.0003249507280997932,-4.0433176764054224e-05,-4.835408253711648e-05
0.00021019778796471655,0.00027972323005087674,-4.667470420827158e-05
0.00021913513774052262,0.0004048982518725097,-4.4763244659407064e-05
0.00018121972971130162,0.00032258490682579577,-3.5853237932315096e-05
8.584110764786601e-05,0.00016063274233601987,-1.8560904209152795e-05
2.9584743970190175e-05,6.146749365143478e-05,-5.589677584794117e-06
4.542585156741552e-05,5.028731175116263e-05,6.058465260139201e-06
8.032773621380329e-05,7.818965968908742e-05,1.542482823424507e-05
7.858561002649367e-05,9.295650670537725e-05,1.5776768123032525e-05
7.926066609797999e-05,8.137319673551247e-05,9.900428267428651e-06
0.00012568688543979079,5.3916199249215424e-05,1.7289008837906295e-06
0.00017477899382356554,1.4674354133603629e-05,-8.14959184936015e-06
0.00013097183546051383,-1.648044417379424e-05,-2.1273308448144235e-05
-1.0245673365716357e-05,8.490267646266147e-06,-2.92593158519594e-05
-9.769965254236013e-05,9.305672574555501e-05,-3.4986478567589074e-05
-5.137220068718307e-05,0.00015496979176532477,-4.429131877259351e-05
4.193872518953867e-05,0.00012328864249866456,-5.7966040913015604e-05
6.720816600136459e-05,2.6940300813294016e-05,-7.051059219520539e-05
6.680807473458117e-06,-4.695932875620201e-05,-8.024455746635795e-05
-6.987481901887804e-05,-5.79579864279367e-05,-8.639787120046094e-05
-0.00010808866500156,-2.5038318199221976e-05,-8.870259625837207e-05
-0.000124734579003416,2.617846621433273e-05,-8.37971456348896e-05
-0.00014831882435828447,7.805238419678062e-05,-6.576340092578903e-05
-0.00016603957919869572,0.00010592532635200769,-4.1304614569526166e-05
-0.00015759476809762418,8.547943434678018e-05,-2.2890688342158683e-05
-0.00012186023377580568,1.0455366464157123e-05,-1.2957695616933051e-05
-6.405774911399931e-05,-9.004247840493917e-05,-5.992188107484253e-06
3.4652659905987093e-06,-0.0001346538629150018,-2.1070507045806153e-06
6.417353142751381e-05,-3.597451723180711e-05,-2.6651980533642927e-06
0.00010998485959134996,0.00014938035747036338,-7.210924195533153e-06
0.00012264956603758037,0.0002477533998899162,-1.3551291885960381e-05
0.00011664826888591051,0.00017875149205792695,-1.870188680186402e-05
0.0001213213981827721,-8.36732579045929e-06,-1.732707278279122e-05
0.00010051028220914304,-0.00025497362366877496,-5.741776476497762e-06
2.2021822587703355e-05,-0.0004184742283541709,5.988342309137806e-06
-5.5846649047452956e-05,-0.00040520954644307494,2.625283968882286e-06
-2.3245826014317572e-05,-0.0002550333156250417,-1.5644842278561555e-05
6.797938840463758e-05,-5.053872155258432e-05,-4.045615787617862e-05
4.970338341081515e-05,0.00010389695671619847,-5.1778046326944605e-05
-6.367632886394858e-05,0.0002064864820567891,-4.7479938075412065e-05
-0.00012558505113702267,0.00024979558656923473,-3.058719448745251e-05
-0.00011361020733602345,0.00020704971393570304,-3.7763331874884898e-06
-0.00016601639799773693,7.555276533821598e-05,2.1765850760857575e-05
-0.0002721284981817007,-8.648416405776516e-05,3.475073754088953e-05
-0.00018345304124522954,-0.00020057169604115188,3.493623808026314e-05
0.00012125026114517823,-0.0002084312291117385,2.9928800358902663e-05
0.0003184640081599355,-8.611087105236948e-05,2.3441527446266264e-05
0.00025548209669068456,0.00012964998313691467,1.1380569958419073e-05
0.0001245097373612225,0.00036415006616152823,-1.0772023415484e-05
0.0001045251774485223,0.0005290640983730555,-3.134512735414319e-05
0.0001571272441651672,0.0005805799155496061,-4.1455874452367425e-05
0.00020508107263594866,0.0005342938820831478,-4.299415377317928e-05
0.00021163868950679898,0.00040111836278811097,-3.997381281806156e-05
0.00010821066098287702,0.0001305026962654665,-2.7236003006692044e-05
-0.00011130202619824558,-0.0001850513945100829,-5.783075266663218e-06
-0.0002900651015806943,-0.000364425330189988,1.7450091036153026e-05
-0.00027512895758263767,-0.0004028808034490794,3.272473259130493e-05
-0.00011429985897848383,-0.00041985223651863635,3.07625814457424e-05
3.2632568036206067e-05,-0.0004119505174458027,6.483008746727137e-06
9.736212814459577e-05,-0.0002733786532189697,-2.3648397473152727e-05
0.00013674123329110444,-1.6224612409132533e-05,-3.8877104088896886e-05
0.000192631792742759,0.00018784438725560904,-4.3490363168530166e-05
0.00020788023539353162,0.00023641111329197884,-5.431704630609602e-05
0.00016052470891736448,0.00015770895697642118,-7.264955638675019e-05
0.00012105044152121991,6.098037920310162e-05,-8.049976167967543e-05
9.507664071861655e-05,3.236392876715399e-05,-6.745814607711509e-05
5.7793604355538264e-05,0.00011383889795979485,-4.069185888511129e-05
1.821308978833258e-05,0.00034417223650962114,-1.650484773563221e-05
-1.3860482795280404e-05,0.0005742397042922676,-3.6095630093768705e-06
-1.828080894483719e-05,0.0006299699889495969,1.8779988977257744e-06
1.2642417459574062e-05,0.00042981983278878033,5.022921868658159e-06
4.009263284387998e-05,9.800434781936929e-06,8.453449481748976e-06
5.051232437836006e-05,-0.0004687221080530435,1.0440366168040782e-05
7.635733345523477e-05,-0.00081413279986009,6.800522442063084e-06
0.00011846270353998989,-0.0008911925251595676,-3.335088365474803e-07
0.00013411846884991974,-0.0006882665911689401,-4.589758191286819e-06
0.00010560177179286256,-0.0003070155798923224,-5.974786745355232e-06
6.124717037891969e-05,8.715361036593094e-05,-1.039162089000456e-05
2.0146453607594594e-05,0.00034071842674165964,-1.947670170920901e-05
-2.9596505555673502e-05,0.00033933381200768054,-3.199487036908977e-05
-0.0001043069496518001,8.792221342446283e-05,-4.4927735871169716e-05
-0.00021288073912728578,-0.00023988934117369354,-4.677640026784502e-05
-0.0004119310760870576,-0.00039555373950861394,-3.304209531052038e-05
-0.0007197438972070813,-0.00029120687395334244,-2.1197853129706345e-05
-0.0009984661592170596,4.100281876162626e-05,-2.5738896511029452e-05
-0.0011478506494313478,0.0003960431204177439,-4.3786989408545196e-05
-0.0011020527454093099,0.000462324678665027,-6.62855600239709e-05
-0.0006003968301229179,0.00018390374316368252,-9.442212467547506e-05
0.00022427865769714117,-0.0002982358855661005,-0.00011747242388082668
0.0009725083946250379,-0.000783576921094209,-0.00012672443699557334
0.001582458964549005,-0.0009266459965147078,-0.00013284572924021631
0.0019889480900019407,-0.000524130358826369,-0.00013446144293993711
0.002052092459052801,0.00010100148938363418,-0.00012962559412699193
0.0016973908059298992,0.0004823404015041888,-0.00011890508176293224
0.0011545945890247822,0.00047583080595359206,-0.00010145629494218156
0.0007358675939030945,0.0002428376756142825,-7.651308987988159e-05
0.00046673338511027396,2.5059098334168084e-06,-4.6296299842651933e-05
0.00016750310896895826,-9.341551049146801e-05,-1.834993963711895e-05
-0.00020202923042234033,-3.1636038329452276e-05,2.0141547452112718e-07
-0.0004643214342650026,0.00013238139217719436,4.3856975935341325e-06
-0.0004851190315093845,0.0003247384156566113,-2.1905752873863094e-06
-0.000300300627714023,0.0004749428480863571,-1.2087322829756886e-05
-8.720007463125512e-05,0.0005257838638499379,-1.6713602235540748e-05
1.9099200017080875e-06,0.00044629047624766827,-1.239760695170844e-05
-9.507295180810615e-05,0.00027902552392333746,-4.472618002182571e-06
-0.00031690497417002916,0.00012574715947266668,-3.995851116656013e-08
-0.0005050543113611639,6.41405931673944e-05,2.2348858692566864e-06
-0.000517914304509759,4.664279185817577e-05,1.275735712624737e-06
-0.00045368532300926745,3.6058581827091984e-06,-5.370153758121887e-06
-0.0004933501477353275,-5.2721214160555974e-05,-1.1881171303684823e-05
-0.0005897675873711705,-6.312393816187978e-05,-1.366804735880578e-05
-0.0006067013018764555,-3.541900878190063e-05,-8.132820767059457e-06
-0.0005693501443602145,-2.0347433746792376e-05,1.1420358987379586e-06
-0.0005347524420358241,-3.1191655580187216e-05,1.0877977729251143e-05
-0.0004402336198836565,5.7668363297125325e-05,2.885188405343797e-05
-0.00014182909217197448,0.00024509738432243466,4.671531496569514e-05
0.00030974028049968183,0.00039821991231292486,5.060400872025639e-05
0.0005907239392399788,0.0004627463058568537,3.729087984538637e-05
0.0006040745647624135,0.00030253734439611435,1.582691038493067e-05
0.0006009716889820993,-6.360491533996537e-05,5.479120773088653e-06
0.000660572899505496,-0.00040530198020860553,1.8223491906610434e-06
0.0006356500089168549,-0.0006142777274362743,-6.5502435973030515e-06
0.0004617396625690162,-0.0007041819044388831,-1.8735274352366105e-05
0.00023820735805202276,-0.0006279576919041574,-2.692325142561458e-05
0.0001077747656381689,-0.0003415611572563648,-3.343148637213744e-05
8.278043242171407e-05,1.4277396985562518e-05,-4.2312491132179275e-05
9.438639972358942e-05,0.00022721977438777685,-5.0108657887903973e-05
7.581862882943824e-05,0.00023535123909823596,-4.883418296230957e-05
1.3026669876126107e-05,0.00013185593707021326,-3.7099860492162406e-05
-6.389826739905402e-05,2.7522548407432623e-05,-2.0039948140038177e-05
-0.00010921528883045539,-3.0601001981267473e-06,-2.8464189654187066e-06
-0.00011077809904236346,4.14233909395989e-05,8.126535249175504e-06
-9.610960114514455e-05,8.820054063107818e-05,1.2254955436219461e-05
-0.00011210112279513851,8.54348618304357e-05,1.5066382729855832e-05
-0.00019455690926406533,5.6962329836096615e-05,2.0105626390432008e-05
-0.00034311736817471683,5.823314131703228e-05,2.5356179321534e-05
-0.000498540117405355,9.310592577094212e-05,2.8336922696325928e-05
-0.0005827295244671404,0.0001241314603248611,2.710883018153254e-05
-0.0005442070541903377,0.00016012707783374935,1.666507523623295e-05
-0.0003811082278843969,0.00016878123278729618,-9.32307284529088e-06
-0.00018260985962115228,9.531391697237268e-05,-3.6287077818997204e-05
3.4117103496100754e-05,-4.42159034719225e-05,-5.2544484788086265e-05
0.00029559186077676713,-0.00021694271708838642,-6.404089799616486e-05
0.0005072429194115102,-0.0002843801921699196,-8.270361286122352e-05
0.0006035028491169214,-0.00014547319733537734,-0.00010768594802357256
0.0005796868354082108,6.77554271533154e-05,-0.00011998374247923493
0.0004659166152123362,0.0001412936981068924,-0.00011017028009518981
0.00037162023363634944,2.9026807169429958e-05,-8.807464473647997e-05
0.000414008682128042,-0.0001100495137507096,-6.954507261980325e-05
0.0005262148915790021,-0.00015605967200826854,-6.083732660044916e-05
0.0005305600934661925,-0.00015649494889657944,-5.7318975450471044e-05
0.00038296228740364313,-0.0001525833213236183,-5.276911542750895e-05
0.00018171631381846964,-0.00010972581367241219,-4.222680945531465e-05
2.909870818257332e-05,-1.7470343664172105e-05,-2.2395730411517434e-05
-0.00010364261106587946,6.727081199642271e-05,5.176272679818794e-06
-0.00030484996386803687,8.821945812087506e-05,3.0128723665256985e-05
-0.0005753147415816784,4.341367821325548e-05,4.20546748500783e-05
-0.0008338759071193635,-2.5182666831824463e-06,3.773840217036195e-05
-0.0010153013281524181,3.5381537600187585e-05,2.199612390541006e-05
-0.0010487993713468313,0.00015288674330804497,2.9367558909143554e-06
-0.0008501267875544727,0.00022042030468583107,-1.0727035260060802e-05
-0.00039808498695492744,0.00016039895126596093,-1.1966667443630286e-05
0.00015047958004288375,6.51051159366034e-05,-6.010805464029545e-06
0.00048439422971569,9.438450092602579e-07,-5.020024673285661e-06
0.0005412479513324797,-7.221637497423217e-05,-1.3786370800517034e-05
0.0006977849989198148,-0.00017323136853519827,-2.4707018383196555e-05
0.0011007796274498105,-0.00026270703529007733,-3.250743611715734e-05
0.0013407876249402761,-0.0002745074743870646,-3.821803693426773e-05
0.0010711364448070526,-0.0001290804211748764,-4.238634210196324e-05
0.0005792180309072137,8.556433022022247e-05,-4.062736115884036e-05
0.0002637967700138688,0.0002626625064294785,-3.415996616240591e-05
3.228704008506611e-05,0.00043869935325346887,-3.114663195447065e-05
-0.00022607149730902165,0.0004933710442855954,-3.141593697364442e-05
-0.00038327492075040936,0.00032333109993487597,-2.6890695153269917e-05
-0.00038298298022709787,4.171906766714528e-05,-1.7868453142000362e-05
-0.00031821205629967153,-0.00018109472875948995,-1.4049946912564337e-05
-0.00022505238302983344,-0.0002682605118025094,-1.9125973267364316e-05
-0.00013532067532651126,-0.0002536172978579998,-2.774951462924946e-05
-9.683427924755961e-05,-0.00018976804858539253,-3.056233617826365e-05
-0.0001292596134589985,-0.00012067962234141305,-2.3318250896409154e-05
-0.00018948246724903584,-5.784974928246811e-05,-1.240341953234747e-05
-0.00020882664830423892,-1.20905615403899e-05,-8.456127034150995e-06
-0.00015855982201173902,2.9160797566873953e-05,-1.288187013415154e-05
-5.8416175306774676e-05,0.00011575759708648548,-1.914331005536951e-05
3.058686343138106e-05,0.0002606537891551852,-2.1073919924674556e-05
6.385907909134403e-05,0.00036882280255667865,-1.5435274690389633e-05
3.756249134312384e-05,0.00037478184094652534,-4.719996013591299e-06
-3.2892530725803226e-06,0.0003134357975795865,2.785533979476895e-06
-1.200809856527485e-05,0.00019951908325310796,2.343611868127482e-06
1.6977981431409717e-05,6.297053460002644e-06,-4.10887651014491e-06
5.718922329833731e-05,-0.00016524999227840453,-1.3657174349646084e-05
0.00010723442392190918,-5.516364035429433e-05,-2.360107646381948e-05
0.00015514004917349666,0.0005132468650117517,-3.127002128167078e-05
0.00019419321324676275,0.0011803902452811599,-3.213106174371205e-05
0.00021698034834116697,0.001272488385438919,-2.7630097974906676e-05
0.00020196448895148933,0.0006016184343025088,-1.992840407183394e-05
0.00018101377645507455,-0.00039639341412112117,-1.4588807971449569e-05
0.00020221150771249086,-0.0013097604969516397,-1.7132428183685988e-05
0.0001527540443930775,-0.0019027928356081247,-2.270160439366009e-05
-4.896257814834826e-05,-0.0018493139650672674,-2.3394564777845517e-05
-0.00026096010697074234,-0.001180111663416028,-1.8755830751615576e-05
-0.0003720303939189762,-0.0003194342425558716,-1.934482679644134e-05
-0.00042049805051647127,0.0002989803615491837,-3.077199653489515e-05
-0.0004391482216306031,0.0005176968988962471,-4.371236718725413e-05
-0.000404499180149287,0.0004401938640512526,-4.672200884670019e-05
-0.0002825930714607239,0.0003254658658988774,-4.1580140532460064e-05
-0.00010378878505434841,0.0003087371005676687,-3.406707401154563e-05
2.1547264623222873e-05,0.00031602621311321855,-2.8308120818110183e-05
5.12926526425872e-05,0.0002611437230370939,-2.5247991288779303e-05
3.879950600094162e-05,0.00015376061492133886,-2.6859772333409637e-05
3.2324624044122174e-05,6.533127452712506e-05,-3.280617602285929e-05
4.5032375055598095e-05,2.4328312065335922e-05,-4.019029802293517e-05
0.00012216850882396102,2.084973493765574e-05,-4.854777580476366e-05
0.0002501313865650445,2.429284722893499e-05,-5.27701158716809e-05
0.0002473368658684194,5.2021332521690056e-05,-4.631939373211935e-05
1.564188460179139e-05,0.00011372056906111538,-3.7250683817546815e-05
-0.0002018450031755492,0.00015291839372366667,-3.7054080166853964e-05
-0.00022861582692712545,6.342606502585113e-05,-4.217935565975495e-05
-0.00016491718997713178,-0.00011544427979970351,-4.2086816392838955e-05
-0.00011638242722256109,-0.00017430787556804717,-3.5791057598544285e-05
-0.0001034186570905149,-3.53515861206688e-05,-3.637293048086576e-05
-1.9945978237956297e-06,8.085864101303741e-05,-4.5199107262305915e-05
0.00034850224619731307,6.113254494266585e-05,-5.0397015002090484e-05
0.0007707914337515831,1.1274249118287116e-05,-4.1474639147054404e-05
0.0009484020993113518,-9.552586561767384e-06,-2.619664155645296e-05
0.0008300859481096268,-1.0662319027687772e-06,-1.3625817700813059e-05
0.0005368653801269829,4.061048821313307e-05,-4.249339781381423e-06
0.0002640486345626414,6.993768329266459e-05,-4.221445578878047e-06
0.0001186327644973062,5.0082198868039995e-05,-7.533823463745648e-06
8.59393912833184e-05,-1.093495393433841e-05,-9.22696926863864e-06
0.00010712366201914847,-8.628991054138169e-05,-1.4068191376281902e-05
0.00016855458670761436,-0.00015461603470612317,-2.792264240270015e-05
0.0002372550661675632,-0.00018323035328648984,-4.649945185519755e-05
0.000271848140982911,-0.00014494913921225816,-5.716414671042003e-05
0.0002837085339706391,-8.105037704808637e-05,-5.735988452215679e-05
0.00027290816069580615,-4.905461901216768e-05,-5.219562444835901e-05
0.00018233440641779453,-6.244203541427851e-05,-4.569721932057291e-05
-6.321715318335919e-06,-9.1273665020708e-05,-3.701617242768407e-05
-0.00023540457186754793,-0.00010138376819668338,-2.4617056624265388e-05
-0.00046573037980124354,-7.067934348015115e-05,-8.611140401626471e-06
-0.0006179347401484847,-2.4365444915019907e-05,1.0915216080320533e-05
-0.0005976423854008317,1.2744845662382431e-05,3.253220347687602e-05
-0.000378508964786306,5.1656807045219466e-05,4.4942371459910646e-05
-3.933353582397103e-05,0.00011743357754312456,4.1488921851851046e-05
0.0002225361531600356,0.00019968052220065147,3.304296842543408e-05
0.00020493313786573708,0.00027011934434995055,2.5639394152676687e-05
-3.822699363809079e-05,0.00032285344786942005,1.5656660252716392e-05
-0.00023511165636591613,0.00045577887794934213,3.5448251765046734e-06
-0.00020152944489382207,0.0006764238933101296,-1.0214102985628415e-05
6.832225153630134e-06,0.0007067363476380706,-2.363421481277328e-05
0.00020081718685105443,0.0003953647392336279,-3.050133636861574e-05
0.00029289862141013145,-5.9039775806013495e-05,-3.576378367142752e-05
0.00034004446933977306,-0.0004398686869535595,-4.486676334636286e-05
0.00036349258152768016,-0.0006473725661635399,-5.054283974459395e-05
0.0003667876299005002,-0.0006674048490822315,-5.229861562838778e-05
0.0003056778514292091,-0.0005076745292171836,-5.481511834659614e-05
0.00013232696801424026,-0.00022309008636511862,-6.050904266885482e-05
-7.026404637144879e-05,3.978485619882122e-05,-6.68548746034503e-05
-0.00014220390585251153,0.00015157977759372443,-6.804111035307869e-05
-8.475275535602123e-05,0.00014003991964273155,-6.454718095483258e-05
-1.3463352843245957e-05,0.00011782311776187271,-6.098660742281936e-05
5.007626668884768e-07,0.00012822185817640275,-6.189548730617389e-05
-4.788159640156664e-05,0.0001829085813369602,-6.18210033280775e-05
-0.00014594473759643734,0.0003039149451069534,-5.366030381992459e-05
-0.00029081740649417043,0.0004470075946301222,-4.244044976076111e-05
-0.00041071101441048086,0.00048126993351615965,-3.87121326639317e-05
-0.00036583998007699847,0.0003431490040384233,-4.2491494241403416e-05
-8.51856530061923e-05,9.177850733976811e-05,-4.359978993306868e-05
0.00023935122590046376,-0.00015901133883744478,-3.478526195976883e-05
0.0003606269310694188,-0.0003284841950517148,-1.8527143765822984e-05
0.0002552803489379585,-0.0003742689732462168,-1.12230316062778e-06
9.977036825148389e-05,-0.00028612426831386983,1.5148784768825863e-05
2.7337084247847088e-05,-0.00012268834689166397,2.7582445909501985e-05
3.142046989523806e-05,1.4184874089551158e-05,3.016106529685203e-05
1.9821834939648397e-05,0.00013182363181840628,2.3627660993952304e-05
-6.754537025699392e-05,0.00032603187719359994,1.278350373468129e-05
-0.00017945206491276622,0.0004889300907962024,5.701963800675003e-06
-0.0001702771260170266,0.00045091655920259655,3.4933825645566685e-06
-2.804854193527717e-05,0.00022324264864437282,-7.302385824914381e-07
6.667166599072516e-05,-0.00015229351993184537,-6.399406629498117e-06
-3.0028695618966594e-06,-0.0005080914124846458,-1.0576757631497458e-05
-6.844675954198465e-05,-0.0006393379298970103,-1.4297022062237374e-05
1.81142459041439e-05,-0.0005444385460577905,-2.0176545149297453e-05
6.37808334431611e-05,-0.0003571496927179396,-2.7428332032286562e-05
-0.0001011191779980436,-0.0001980131200980395,-3.861072036670521e-05
-0.0002962356375064701,-9.384623990627006e-05,-5.27426200278569e-05
-0.00021021586144343019,-2.8462076443247497e-05,-6.208298145793378e-05
0.00017802719958126545,1.8232176444143988e-05,-6.0751433920813724e-05
0.0005840820958837867,3.037010901607573e-05,-5.4742304200772196e-05
0.0007517480407841504,-1.1468141565273982e-05,-4.9367761675966904e-05
0.0006823629373684525,-5.207106005400419e-05,-4.914705641567707e-05
0.0004839002504013479,-3.0006038286956027e-05,-5.188970317249186e-05
0.0002553344238549471,4.2338986531831324e-05,-4.89950725750532e-05
0.00011019851808669046,0.00012647903349716216,-3.915592606063001e-05
0.00010797654977068305,0.00019872398115694523,-2.829415097949095e-05
0.00018278825154993683,0.00024154965649358928,-1.83761785592651e-05
0.00020519274403341115,0.00023907625291030854,-3.280948021711083e-06
6.492908141808584e-05,0.00019698799587786198,1.4325990377983544e-05
-0.00020257676078472286,0.00012431883078534156,2.3971431801328436e-05
-0.0003577782481443137,-1.1900933714059647e-05,2.204269912908785e-05
-0.0002449342282488942,-0.00017979697440750897,1.8207039829576388e-05
-2.4227849280578084e-05,-0.0002274211001349613,1.4659092812507879e-05
7.877492316765711e-05,-0.0001598022208781913,8.325050657731481e-06
3.6573619581758976e-05,-9.807784954318777e-05,3.7543427424679976e-06
-8.52418816066347e-05,-6.047521310392767e-05,5.856076313648373e-06
-0.0002177828864660114,-6.328189556370489e-06,9.111136932915542e-06
-0.0003341836854815483,5.984359449939802e-05,4.949152412336844e-07
-0.0004523332172539085,8.143527520587668e-05,-2.132419467670843e-05
-0.000501993577927351,7.434569852193817e-05,-3.7541944038821384e-05
-0.00045360744115896523,7.882966019678861e-05,-3.914177796104923e-05
-0.00035945986746810377,0.00010657386155799031,-3.443188688834198e-05
-0.00019938636978622526,0.00014449672016780823,-2.7797250368166715e-05
2.172303902625572e-05,0.00022409613302443177,-2.154414505639579e-05
0.0002464154385961592,0.00033426351728849113,-1.58679140440654e-05
0.0004296423867344856,0.0003474065742921084,-7.656984053028282e-06
0.0005593826062977314,0.0001937153429025784,-1.1043093763873912e-06
0.0005996044492349029,-7.776852726237848e-05,-9.198615202876681e-07
0.0004948658170178533,-0.0003573964349925518,-1.121043533203192e-05
0.000279797037364915,-0.0005375157343223691,-3.1788764317752793e-05
9.19047452043742e-05,-0.0005427193245850503,-5.415158375399187e-05
5.773698285338469e-05,-0.0003961533948313445,-6.915636186022311e-05
0.0001637023815419525,-0.00018428964540362358,-7.202989945653826e-05
0.00027704640524461865,1.9426241124165244e-05,-6.409828347386792e-05
0.0002862187393475324,0.00014239228039514273,-4.963065657648258e-05
0.00018618041940499097,0.0001260337303392589,-3.408519478398375e-05
3.968853343394585e-05,3.979325629188679e-05,-2.1741785531048663e-05
-6.918925646459684e-05,1.7225847841473296e-05,-1.4672911675006617e-05
-9.472377132624388e-05,8.203100878745317e-05,-1.3074591151962522e-05
-6.963315536268055e-05,0.00015038411947898567,-9.042924830282573e-06
-3.785414810408838e-05,0.00017346868116874248,-1.9116671410301933e-06
-9.209969903167803e-06,0.00016306675388477743,5.989598776068306e-06
-7.19034142093733e-05,0.0001356436696369201,1.5685474863857962e-05
-0.00022054075088817626,0.00012732901086565107,2.4474034944432788e-05
-0.0003213230229448527,0.00014250449021346867,3.43094980053138e-05
-0.00035962334368377924,0.0001536358759040013,3.720762470038608e-05
-0.0003198009799234569,0.0001170902542071417,2.0252473404980265e-05
-0.00017351689166389406,7.851761620258912e-05,-1.487203007854987e-05
-2.3804130250937305e-05,0.00016719081031624228,-4.0453178371535614e-05
-2.7144194518768927e-06,0.00032620757701806724,-4.935818287776783e-05
-9.738274820847437e-05,0.0003730362222995609,-4.945266482536681e-05
-0.0001673745719017461,0.00021472752268891782,-4.197712041786872e-05
-0.0001504428219050169,-0.00011661452299449593,-3.19511818815954e-05
-0.0001282677985727787,-0.0004791688115801662,-2.8961650968994945e-05
-0.00011557882680790499,-0.0006937933503650129,-3.9729344280203804e-05
-5.6668417528271675e-05,-0.0006423107697628438,-5.816476186737418e-05
0.00010344992915634066,-0.0003542413760442287,-7.72081984905526e-05
0.0004291841760277748,3.791540439124219e-05,-9.183447400573641e-05
0.0008607149939052761,0.00041536855860613286,-0.00010372095857746899
0.0011011515744030476,0.0006771055050194263,-0.00011255688150413334
0.0009468195494264364,0.000666185631416738,-0.00011074927169829607
0.0005855135386809707,0.0003376025997567922,-9.208168921759352e-05
0.00032256674603559077,-0.00010439494508318603,-6.735669740010053e-05
0.00025224039563909173,-0.000427202699938789,-4.726913903141394e-05
0.00027867197059094906,-0.0005648924270644784,-3.056409696000628e-05
0.00030591865652240813,-0.0005228790687397122,-1.7901325918501243e-05
0.00030150244128890336,-0.00029146249289624393,-1.3412134649115615e-05
0.0002758530608844012,5.0803057092707604e-05,-1.251107551070163e-05
0.0002577903214842081,0.00035285859485156834,-1.750720912241377e-05
0.00015226867981255054,0.00045561519800685346,-3.0061275538173504e-05
-0.00015268907009158283,0.00040165361133404076,-3.633126107160933e-05
-0.00046682063839398324,0.00029605967574752867,-2.8279804610065185e-05
-0.000555173959583044,0.00020911710453219712,-1.2737451470457017e-05
-0.00044677607365883887,0.0001824243227019906,-2.5657218429842032e-06
-0.00031325893360190094,6.797082460252568e-05,-5.738430445489939e-06
-0.0002288788091391325,-0.00015869589697103947,-1.83001538971439e-05
-0.00021468901832122356,-0.00035673886304721236,-2.369110006839037e-05
-0.00027721497463062406,-0.0003912944230251014,-1.730780422803946e-05
-0.00034737642272375524,-0.00030188710661605,-1.0062643923447467e-05
-0.0003202333755325526,-0.00017442666285205632,-6.349471732391976e-06
-0.00019911205163225532,-5.190438241697848e-05,-3.090314066866995e-06
-0.00010687500616768375,4.569603697746061e-05,-2.7488823661769857e-07
-8.288503886433318e-05,0.00011004755651811138,1.9192548279534094e-06
-6.513117114081979e-05,0.00013234441576059908,7.595021088491194e-06
-6.002593363518827e-05,0.00015222921501845121,1.7154152374132536e-05
-0.0001462476939195767,0.00021613888384308666,2.260697328893002e-05
-0.00027831087936647236,0.000286037044133991,1.679126035014633e-05
-0.0003446190676186234,0.00027179246535524726,1.2188695563963847e-06
-0.00032745939097367227,0.0002183311735279858,-1.2480049008445349e-05
-0.00028256193036213517,0.00016713789955247194,-1.2066894669260364e-05
-0.000249689444899559,4.5460983528755605e-05,-5.021587412556983e-07
-0.00015038586570881307,-0.00018197923782281578,7.350203759415308e-06
0.00016174634220078588,-0.00038016229518689215,-1.3987586555685994e-07
0.0006013374659232795,-0.0004436367307789624,-1.674999475653749e-05
0.0008661685860715806,-0.0004018111212644726,-3.0855600925860927e-05
0.0007773665129207075,-0.0002782060473691672,-3.8509915611939505e-05
0.0005602424498647451,-3.3742893720045686e-05,-4.25673570134677e-05
0.0003976050647906959,0.0003835815005004406,-4.37474918726366e-05
0.00012094521662220359,0.0008170506334863603,-3.8861544453538954e-05
-0.0002839463122654706,0.000970077293459326,-4.261395224602893e-05
-0.0005356126930564642,0.000877872749697417,-5.592691377387382e-05
-0.00043463779729790986,0.0005793002201244235,-6.222583760973066e-05
-0.00016368654905818403,2.1725787519244477e-05,-5.365680772229098e-05
6.227463745744899e-05,-0.0006316202343441546,-3.836969335679896e-05
0.00028329528868198395,-0.0010973376920446754,-2.87451457552379e-05
0.0005309683619998395,-0.001182123669423163,-2.3943130145198666e-05
0.0006560464389622211,-0.0008990036440081894,-2.093842158501502e-05
0.0005463726702146232,-0.0003862770972773433,-2.1063433450763114e-05
0.00030707998666912317,9.995262371376157e-05,-2.431182838336099e-05
0.00011226900824112818,0.0003094603307545185,-2.74300437013153e-05
2.296930870215874e-05,0.00021014407684560865,-2.671851143531967e-05
-1.167972368421033e-05,-3.517064897096134e-06,-2.0484421838773414e-05
-3.966338772443123e-05,-0.0001585174904903397,-1.3797615793009754e-05
-4.6455035771941766e-05,-0.00018591166008263826,-9.602598765923176e-06
2.6339455871493556e-05,-0.00010810587264131755,-9.122264600591734e-06
0.00015089141379576176,1.2806069662474329e-06,-1.7261494576814584e-05
0.00014658496365882456,0.00011009177978849038,-3.460633524809964e-05
-8.601306763011962e-05,0.00023395229072775692,-5.151159348315559e-05
-0.00034869418595917523,0.0003109014069195837,-5.9849859098903835e-05
-0.0003605748643167317,0.00027449842309579253,-6.322292028926313e-05
-0.00010549549187999219,0.000168749233125709,-6.444044265663251e-05
0.00013603223487734795,3.979800021625124e-05,-5.79215629841201e-05
0.0001798508019419387,-0.0001332046667812392,-4.341661770013161e-05
0.00012134583812439814,-0.00023200608848128468,-3.409724740777165e-05
3.2089217711472884e-05,-0.00014784505765419453,-3.109929821221158e-05
-0.00010447703243698925,-4.899478426523274e-06,-2.1837637177668512e-05
-0.00024089576618280262,7.180900138337165e-05,-6.247534201975213e-06
-0.0003008627099916339,7.62750132707879e-05,9.237292942998465e-06
-0.00027734131435863674,9.415268141310662e-05,1.461531974200625e-05
-0.0002400601515546441,0.00020949756435584277,1.1793986232078169e-05
-0.00017393245070707053,0.0003421748406253755,4.874359092355007e-06
8.331125718541443e-05,0.00032507695141248405,-5.475899342854973e-06
0.0005023576668463647,0.0001620674302102998,-1.599574534338899e-05
0.000702828518114984,-2.428739571769256e-05,-2.366014086874202e-05
0.000470367434900254,-0.0001227170432684943,-2.6964267817675136e-05
0.00010947950067929924,-0.00012101655011065304,-2.3260623493115418e-05
-2.7591060643317178e-05,-3.425406612223014e-05,-1.1433169675001409e-05
5.5737150432833005e-06,0.00012729610898531973,-1.4570601933883154e-06
2.521243368391879e-05,0.000312056828988716,-3.969827048422303e-06
3.955875581596047e-05,0.00041165624861605465,-1.752763637341559e-05
0.00010022743663284928,0.00035309995291754603,-2.7897478503291495e-05
0.00016554015746805817,0.0001853195863077417,-2.8863532861578278e-05
0.00022598059149459004,6.162185854918789e-07,-3.1003033654997125e-05
0.0002987439511343837,-0.00015330758469644934,-4.24968711740803e-05
0.0003228000714443624,-0.00026353527209721506,-5.207928552408703e-05
0.00028178596403449774,-0.0002956722746603191,-5.005689672543667e-05
0.0002321712818229571,-0.0002408078289590776,-3.731527613126673e-05
0.0002113121736329049,-0.00013520801439881325,-2.6881973099079914e-05
0.0002222251205239445,-3.4948199754580855e-05,-2.6834148229681887e-05
0.00023110711481422186,3.044494405912701e-05,-3.294965426903218e-05
0.00018430691852699965,5.4689291573595256e-05,-3.7692978366976604e-05
8.071882621152326e-05,0.00012160476035205647,-3.2129933970281854e-05
-7.322803139686584e-05,0.0002305776724824682,-1.7501035472378135e-05
-0.0003289895539637655,0.00024535940610803664,-3.0871881335770013e-06
-0.0006033554673194885,0.00013093909365125,9.385812518303283e-06
-0.0007543532992713153,-5.077087553218007e-05,1.796525793906767e-05
-0.0007982462993822992,-0.00023622634762432426,1.896278808999341e-05
-0.0007967257988639176,-0.000377524207578972,9.293939001508988e-06
-0.0007435687002725899,-0.0004165969439782202,-1.063401850842638e-05
-0.0005043348064646125,-0.0003476399870123714,-2.6764595531858504e-05
-2.4386434233747423e-05,-0.00022454519057646394,-3.3794258342823014e-05
0.00045540896826423705,-0.0001025450837914832,-4.454336522030644e-05
0.0007041728240437806,-2.95450518024154e-05,-6.381111597875133e-05
0.0007845404907129705,1.0342013410991058e-05,-7.592676411150023e-05
0.0008492785273119807,9.406681783730164e-05,-7.04801786923781e-05
0.0008705183863639832,0.00023381301434710622,-5.4722389904782176e-05
0.0007461427012458444,0.0003107672091573477,-4.1899656935129315e-05
0.0005100301350466907,0.00023746813531033695,-3.3989897929131985e-05
0.0002758149057626724,0.00010320859291823581,-2.6663028620532714e-05
6.560514157172292e-05,3.3014883229043335e-05,-1.913698906719219e-05
-0.00017760285118129104,2.4368715457967483e-05,-1.3945576938567683e-05
-0.0004157971707172692,-8.670036550029181e-06,-1.3648755157191772e-05
-0.0004835043509956449,-5.275911098578945e-05,-2.0973264327039942e-05
-0.0003348708851262927,2.5063870907615637e-06,-3.2433239539386705e-05
-0.00013857425074093044,8.183908357750624e-05,-3.82076068490278e-05
-6.325305002974346e-05,5.9513768064789474e-05,-3.86364154110197e-05
-0.00014875568740535527,-6.877115993120242e-06,-3.800315607804805e-05
-0.00028121727518737316,-1.0924431990133598e-05,-3.428193667787127e-05
-0.0003000788274221122,0.00013831783144269139,-2.727670107560698e-05
-0.00020277885778341442,0.0003881738812197,-1.456840163882589e-05
-8.910601172829047e-05,0.00044006825191900134,6.377376848831773e-07
3.5471814044285566e-05,0.00015365181025117636,1.1793823432526551e-05
0.0001879125484265387,-0.00024416999076493084,1.949504076037556e-05
0.00030124219483695924,-0.000542812398634851,2.2859478121972643e-05
0.00029839295893907547,-0.0006660576909780502,1.9917084500775672e-05
0.0001870531268650666,-0.0005969798075966537,6.9766215347044636e-06
7.765286864014342e-05,-0.0003767010639421642,-9.49035347730387e-06
3.469841612968594e-05,-0.00013161638344172388,-2.460194991726894e-05
-1.4192854905559216e-05,4.61879390059039e-05,-3.9768936403561383e-05
-0.00012842459545936435,0.00014457694487646222,-5.342808799468912e-05
-0.00024834403302520514,0.00019950050045736134,-5.7725617807591334e-05
-0.00032171400380320847,0.0002323939697816968,-4.9216800107387826e-05
-0.00037274061469361186,0.0002112129732267931,-3.4749118640320376e-05
-0.0004509390564635396,0.0001759847509674728,-2.332539042981807e-05
-0.0005365528049878776,0.00022262227139435709,-1.5533809346379712e-05
-0.0005302292993292212,0.0002701119228731841,-7.362345513683977e-06
-0.00035109304008074105,0.00013362661411520094,1.904620603454532e-06
2.578146904852474e-06,-0.00013934315938968211,1.0304360330337659e-05
0.0004001324123237282,-0.000339345948304981,1.2720818631350994e-05
0.0006223084055818617,-0.0003540767647791654,4.9542886699782684e-06
0.0006191915599629283,-0.0001838740863604471,-1.234422052220907e-05
0.0005850589368492365,0.00011418537178542465,-3.0055867682676762e-05
0.000669678149279207,0.0004269414930604398,-4.469421037356369e-05
0.0007509965798817575,0.0008104683365672827,-5.8246492699254304e-05
0.0006270271842367947,0.0012553916312754154,-5.958330075372942e-05
0.00038802772178314626,0.0014500574907287955,-3.858917625620961e-05
0.0002301524073118344,0.0011547147296369076,-8.91948820935795e-06
0.00016707144095562398,0.00041517268982715905,1.2193740985821933e-05
0.00013618475350085646,-0.0005292643327265978,1.2329252967901994e-05
0.0001255117531400174,-0.0012874912936240435,-1.8621871049617766e-06
0.00014704022032674402,-0.0015382959973067045,-1.716097176540643e-05
0.00019158671784680337,-0.001270180568099022,-2.918819518527016e-05
0.0002417286013951525,-0.0007360921008512378,-3.875749825965613e-05
0.0002541848225519061,-0.00024657585890963674,-3.9388847653754056e-05
0.0002169776998925954,4.8383175453636795e-05,-2.419625161564909e-05
0.00011607374472077936,0.0001479249622207135,-6.9851612352067605e-06
-8.258707384811714e-05,0.0001776155986590311,-6.117906195868272e-06
-0.00032635702518746257,0.00018874149827752262,-2.194526132370811e-05
-0.0004477536422200501,0.0001496934419265017,-3.714666672749445e-05
-0.0003388257755432278,7.613542402395979e-05,-4.301786975702271e-05
-0.00011330369306961074,3.3591124520171434e-05,-4.538253779173829e-05
-1.2738469195028301e-06,4.573335172608495e-05,-5.086730743641965e-05
-0.00010078289778903127,6.899071740917861e-05,-5.4206950153457e-05
-0.0003249192959628999,5.4313721193466336e-05,-4.953223833581433e-05
-0.0005727589596062899,-1.763750879035797e-05,-4.011156488559209e-05
-0.0007726133335381746,-0.00011315372830722481,-3.176821701345034e-05
-0.000864831090439111,-0.0001637225941522047,-2.2132808226160705e-05
-0.0008342256769537926,-9.168191900243983e-05,-6.9730813265778124e-06
-0.00073475600220263,6.822869181632996e-05,1.4327775716083124e-05
-0.0005982799339108169,0.00015509342483710498,2.949430563603528e-05
-0.0003015088732354343,6.504602788481861e-05,1.9583143512136303e-05
0.0001309425279032439,4.030946729471907e-05,-1.2825684279960115e-05
0.0005372546147555113,0.0001463799853809178,-3.837983967969194e-05
0.0008024665876291692,0.00020171678625047207,-3.65460837201681e-05
0.0007992304745130241,0.00020622446027118713,-1.0862245289899874e-05
0.0006037431885488331,0.00015585935034323484,1.7838799976743758e-05
0.00041600881377235055,5.983974915579893e-05,2.4606040824437514e-05
0.00041949021397158504,-4.665051892516203e-05,1.2265928489796352e-05
0.0005214957054704428,-7.171501783886924e-05,2.645295808179071e-06
0.0005202638567425311,-3.1574679724144517e-06,2.5275630832766183e-06
0.00048102252185344696,5.5959644669201225e-05,-2.131524752257974e-06
0.0004932249430567026,1.0376700629421975e-05,-1.728415190882515e-05
0.0004642187850549817,-0.00010331859812140465,-3.368878969922662e-05
0.00034770037746056914,-0.00017848813149612397,-4.34147150372155e-05
0.00021541741443797946,-0.0001659196277614683,-4.822526534553617e-05
0.00012686781701631844,-8.643526234664023e-05,-5.076067100162618e-05
0.00012805072765331715,-2.1419414224510547e-06,-5.328036058926955e-05
0.00018497936252970248,4.242912109475583e-05,-5.733760190196335e-05
0.0001877434115158394,3.4591666917549446e-05,-6.159134500194341e-05
8.615453407401219e-05,1.6870688341441564e-05,-6.406979082385078e-05
-1.9188128135283478e-05,3.844346429104917e-05,-6.747481529600918e-05
-5.068466271040961e-05,0.0001474189484724775,-7.556830678367987e-05
-3.788585672737099e-05,0.00035322277108207345,-8.354480814887211e-05
-2.298437902936712e-05,0.0006378941470757127,-8.205062476918101e-05
2.129005952156149e-05,0.0008168970234692097,-6.322948320303112e-05
0.00010774180555017665,0.0006974381394684315,-3.61064012395218e-05
0.00018884445307776332,0.00033587627694942057,-1.735382465994917e-05
0.00022130737488623708,-0.0001295030815526843,-8.216828973672818e-06
0.0002021974796662107,-0.0005113345687277615,-7.848024324630387e-06
0.0001261816214537248,-0.0007392750703729689,-1.4413350072572939e-05
-2.110586683556903e-05,-0.0007933254237286747,-2.7029160264646634e-05
-0.00014266349899116904,-0.0006233325693756342,-4.106535197934136e-05
-0.00015061249723657966,-0.0003507804067339748,-4.760621959576383e-05
-0.00015046665794216096,-9.809614857658744e-05,-4.4964050175622106e-05
-0.00020789851259905845,6.570910045411438e-05,-3.867570194415748e-05
-0.00027419408434070647,0.00015358126256614923,-4.2072893847944215e-05
-0.0002996593539137393,0.00017100022523663938,-4.979474033461884e-05
-0.0002754872548393905,0.0001439990446669981,-5.1845392590621486e-05
-0.00023770035477355123,9.131621482083574e-05,-4.4639793486567214e-05
-0.00021917952108196914,2.7722358936443925e-05,-3.261847450630739e-05
-0.00019729732593987137,-3.0489181881421246e-05,-2.2325722966343164e-05
-0.0001392012054566294,-8.931550837587565e-05,-1.5565887224511243e-05
-6.759409006917849e-05,-0.0001376772706862539,-9.215832506015431e-06
-2.5530196580803022e-05,-0.00013163509720470756,-7.646330004718038e-07
-9.919213880493771e-06,-4.825500582228415e-05,4.701623311120784e-06
2.689221582841128e-05,2.3959899408509955e-05,3.1047495667735348e-06
9.307525033364072e-05,2.9265864213812165e-05,-5.047681383985037e-07
0.00015165962395258248,2.618482722027693e-05,4.867261395702371e-06
0.000166311816428788,0.00012467356282286346,1.5030132090032566e-05
0.00015532858378719538,0.0003196629695594311,1.4855777408229187e-05
0.00013039940677117556,0.0004749059153255075,7.185996651060123e-07
6.544511415995657e-05,0.00044801016338169575,-1.396126754116267e-05
1.650042031542398e-05,0.00026302100741304457,-2.0707635485450737e-05
6.847964687040076e-05,2.599500112410169e-05,-2.090202360705007e-05
0.00016548193525522947,-0.00015472578525077552,-1.9877827071468346e-05
0.00017198028217535466,-0.00019090823479928076,-1.6149841030710377e-05
7.424549039569683e-06,-0.00010897155152633786,-9.420156857231632e-06
-0.0003056235145777464,-9.402227988175582e-06,-1.1098717550339643e-05
-0.0006168826948851347,4.622886626748368e-05,-2.2634636479779147e-05
-0.0007435157313011587,1.5645338862668723e-05,-3.188541086274199e-05
-0.0007093810709193349,-5.270278415991925e-05,-3.608388942666352e-05
-0.0006292887846939266,-9.615105227567255e-05,-3.761871994356625e-05
-0.0005713833379559219,-0.00010227238817606121,-3.77354008378461e-05
-0.0004943017265759408,-9.545863576931879e-05,-4.064879612997174e-05
-0.0002688865642994642,-5.837951539433561e-05,-5.146967669134028e-05
0.00018945868941955268,2.1172854758333415e-05,-6.662683881586418e-05
0.0007048844126984477,0.00010948157432721928,-7.693174120504409e-05
0.0009418745758011937,0.00015842929133214056,-7.841285696486011e-05
0.0008105727611109614,0.00013094980386085808,-7.66874582041055e-05
0.0005236905999481678,4.778034781338647e-05,-7.903438381617889e-05
0.0003231947775930166,-3.293175177532248e-05,-8.314049046020955e-05
0.00025880945031531155,-5.875700662727468e-05,-8.19932174636051e-05
0.00025958995684050024,-4.460901254788041e-05,-6.974015559535474e-05
0.00023305584909394383,-1.3027875866100658e-05,-4.4905635149916634e-05
0.00014241195458453149,2.9530930987675674e-05,-1.444430927222129e-05
3.4053580748150125e-05,9.107578807743266e-05,7.880388693592977e-06
-2.0510929061856586e-06,0.00013356853742152452,1.825959225243423e-05
2.0414989194250666e-05,0.0001206718006869778,2.6364295990788378e-05
6.475927420979133e-06,3.863229358103126e-05,3.733646008186042e-05
-5.772277290816419e-05,-9.41415928537026e-05,4.498324778978713e-05
-9.051543020177633e-05,-0.0002248556265840307,4.560604065773077e-05
-5.278304888634011e-05,-0.0001488297275500372,3.933476182282902e-05
