-0.0003965565119870007,-3.572596324374899e-05,5.299795157043263e-05
-0.00013170063903089613,-8.897713269107044e-05,3.571120396372862e-05
0.00010635623038979247,-2.6908588552032597e-05,-1.479069624110707e-06
0.0001591991021996364,4.6440451114904135e-05,-3.436788756516762e-05
6.517764268210158e-05,5.148604395799339e-05,-4.1789702663663775e-05
-7.256508979480714e-05,3.0215203423722414e-06,-3.428550553508103e-05
-0.00040084696956910193,-4.6204007958294824e-05,-3.7177112972131e-05
-0.001017626142129302,-7.584552076878026e-05,-5.392253660829738e-05
-0.0015813602367416024,-8.603759488323703e-05,-7.248103065649047e-05
-0.0016789772780612111,-7.730847573839128e-05,-8.465594873996451e-05
-0.001271369052119553,-6.293649494182318e-05,-8.59109204611741e-05
-0.0005932905478402972,-7.302192534552887e-05,-7.448698306689039e-05
0.00016867619706317782,-0.00011061092664021999,-5.16832951689139e-05
0.0009349246392957866,-0.00013012804265599698,-2.5832563551375642e-05
0.0016160050872713327,-9.076826245291159e-05,-6.293259048106847e-06
0.0019825210329145193,-1.351170885754982e-05,1.9701297787833028e-05
0.0018605537479743361,4.7072957386262715e-05,6.904039764776826e-05
0.0014135697856545448,7.168909360188991e-05,0.00010322558227926493
0.0009774969657883048,6.912954268045723e-05,6.552236300194636e-05
0.0006918343133293092,5.2239101933082566e-05,-2.2150064978632145e-05
0.0004870806005783379,3.444366666371934e-05,-9.073258115677163e-05
0.00030565483029931784,2.5335430109407753e-05,-0.00011160616122651845
0.00017257884610444307,2.259170651086606e-05,-0.00010019737965194508
0.00010272906365571544,2.0540866898954846e-05,-7.682148861931637e-05
7.455571903847158e-05,2.0084917196072638e-05,-5.4815507610328496e-05
1.2373561730782967e-05,2.2470658223028295e-05,-4.551338861347176e-05
-7.439704495482147e-05,2.0045839846716262e-05,-3.2684009056538343e-05
-0.00011038247612304986,1.6393531041103415e-05,7.260654001584044e-06
-9.191965364152566e-05,1.3708542610402219e-05,5.7138029660563916e-05
-6.843822484370321e-05,1.0620636203384493e-05,7.583580736536533e-05
-5.6764762121019885e-05,1.6082085494417697e-05,5.100109410705045e-05
-3.0061322831897996e-05,3.4438184229657054e-05,1.1320962585159577e-05
-1.3571796444011852e-05,5.166236951481551e-05,-2.128992127836682e-05
-7.553699106210843e-05,5.509959373739548e-05,-3.917297362932004e-05
-0.00019194062042515725,4.6640983782708645e-05,-4.0634531615069136e-05
-0.0002637925499584526,3.148280666209757e-05,-2.8172344173071906e-05
-0.00024633455905131996,1.481896197219612e-05,-1.687171788944397e-05
-0.00017169468628708273,1.6186761058634147e-05,-1.291952321480494e-05
-9.902453166432679e-05,3.35889017151203e-05,-1.0592911166895647e-05
-6.608659168705344e-05,2.4659781047375873e-05,-1.0699829545046668e-05
-3.2575066143181175e-05,-2.1993208065396175e-05,-2.0601069991244003e-05
5.4967367759672925e-05,-5.018983574700542e-05,-4.3798700062325224e-05
6.616784958168864e-05,-1.6513420632691123e-05,-6.674281030427665e-05
-0.00014184780593495816,4.4298321881797165e-05,-7.242080755531788e-05
-0.0004002281930297613,8.854217594489455e-05,-5.712570418836549e-05
-0.0004201513365842402,0.00011710653052432463,-3.866844417643733e-05
-0.00019331296789459884,0.00013659341493621469,-3.430382639635354e-05
8.258044545073062e-05,0.00012916154810227454,-4.337725113146007e-05
0.0002178075519623235,7.574026676593348e-05,-4.952494418830611e-05
0.0001327253703493625,-2.376807515247492e-06,-4.578056177706458e-05
-0.00011170834477525204,-5.3469051636056975e-05,-4.305066977394745e-05
-0.0003458749852143228,-6.048083378118463e-05,-5.3858631872572005e-05
-0.00034401650191284716,-3.7227906432235613e-05,-7.687294419156387e-05
-0.00019066680397372693,-4.561243258649483e-06,-9.113775740843266e-05
-7.189181633293629e-05,2.7529695216799155e-05,-6.9101108238101e-05
7.495960016967729e-05,4.46618978457991e-05,-1.4456735698331613e-05
0.00021467037731781602,1.8788554370985366e-05,3.017728158738464e-05
0.00034736303496174514,-4.426919258548878e-05,3.526443833834492e-05
0.00045731887803412974,-0.0001104877155739814,1.7709962776280008e-05
0.00044151992187835276,-0.000184410615474917,1.8322596133657498e-06
0.0002983543963637203,-0.000262274726992473,-5.877113380847732e-06
0.00012999912723898888,-0.0002731356944423169,-8.268234523711726e-06
-1.422330797140603e-06,-0.00018005490710493177,-9.434436833544169e-06
-0.00013649289030581713,-3.277132782386616e-05,-1.197638084704522e-05
-0.0002559367276262492,0.00011906556028407067,-2.3954657081048936e-05
-0.00024329351435881108,0.0002707278181333095,-5.461659384309314e-05
-5.708265962311998e-05,0.00035853535518981516,-9.688104182714596e-05
0.00015149636601563543,0.0002842145913746208,-0.00013355078408494592
0.00021496412227861583,7.941597141325474e-05,-0.0001575742062414065
0.00011398642527638003,-9.505012712907046e-05,-0.0001625922304810956
-1.2005039934592787e-05,-0.00013510081043932587,-0.0001365140633424744
-4.8558827984379604e-05,-7.371866377070546e-05,-8.060515392571688e-05
-1.5028467714728322e-05,1.3399212548392825e-05,-1.3580868653662037e-05
-2.4351573301828466e-05,6.989036774029955e-05,4.7093948523979634e-05
-0.00010724667663453147,6.999828474363312e-05,8.460322715109214e-05
-0.00018362741684541106,2.8170496079837903e-05,9.484509791946039e-05
-0.00019426000653766096,-1.6126079572131857e-05,9.237986523658037e-05
-0.0001470431307097897,-3.139331965940073e-05,8.165832696249709e-05
3.063027543248609e-05,-1.608970524102915e-05,6.868282798677683e-05
0.0003164020017720759,4.726999577542301e-06,5.413620237959549e-05
0.0005236634751781821,3.370509512024e-05,7.70204951550113e-06
0.0005565364263020456,6.184323137858883e-05,-6.52731250738725e-05
0.00044962074025534093,4.957022247253917e-05,-0.00012154722207924351
0.0003157276369165629,4.026795977551956e-06,-0.000148357983562164
0.00022164735128171742,-2.7839070753543638e-05,-0.0001602951087988913
0.00016189223970286548,-1.5416380847455002e-05,-0.00016448883980046958
6.578025931958109e-05,1.7739341274136677e-05,-0.0001549868320580572
-4.611091935657896e-05,4.0355058445129544e-05,-0.00012860925926361233
-7.486248796340078e-05,5.4768835980212316e-05,-8.849878940964118e-05
-4.4148923734610435e-06,7.014389848336577e-05,-3.356836168677546e-05
7.815463322913274e-05,7.57464295020327e-05,4.024074587505311e-05
9.640663483878598e-05,6.753501656930894e-05,0.00012131148832850158
6.482752360170707e-05,5.752802826464176e-05,0.00016862995107658207
2.984933234984055e-05,3.964947973145172e-05,0.0001491304428782314
1.020400486595463e-05,-4.008847554359818e-06,8.758336480241269e-05
-2.3720927856629714e-05,-7.220375118777156e-05,3.561742778401822e-05
-0.00010423714411444962,-0.00013054667215328664,9.126792974711861e-06
-0.00020137985120527446,-0.00013351756206247956,-1.688883094175253e-05
-0.00023702731414232403,-5.171545490156859e-05,-5.087226600153372e-05
-0.00020038476213812828,7.803970947861671e-05,-5.859734665136784e-05
-0.00019658108067233115,0.0001472903968533501,-5.869593678653473e-06
-0.00032458140049129725,0.00010069559357361868,7.171953620854765e-05
-0.0004322555032558739,7.448804353771266e-06,8.660142339067534e-05
-0.00037855166010558605,-5.635106936097145e-05,2.298500476172194e-05
-0.0003345031582284719,-0.00010355576523579657,-5.558794509852305e-05
-0.0004299966967664659,-0.00016074661107268184,-0.00010134891635971144
-0.0004190271720290184,-0.00015235511818900704,-0.00010397093865321949
-8.984660962596536e-05,-4.649789843824692e-05,-6.59771467326209e-05
0.0003395803505554795,5.218963997322135e-05,-3.837645181192784e-06
0.0005893941270187497,8.172939124051481e-05,3.233739698771387e-05
0.0005464712157845497,7.461411587428302e-05,1.7869455405161716e-05
0.0002393187169218436,6.73936665407382e-05,-9.210294592776336e-06
-0.00022565740800928324,6.034338002791628e-05,-1.4874671251163818e-05
-0.0006863184971734881,5.104514639242552e-05,5.241806775302393e-06
-0.0009946429636329412,3.9648020901950076e-05,3.373693471075967e-05
-0.0010040729539468884,2.5336779799545184e-05,4.1796418372541666e-05
-0.0006019563879817724,1.0424128049635328e-05,1.3890074114897288e-05
6.915130506968126e-05,2.2372307739715325e-06,-2.9816414098604582e-05
0.0007061815704219043,3.2139987524715252e-06,-5.3117211791686714e-05
0.0010623341659083962,1.2270232218725141e-05,-3.4897188015747815e-05
0.0011016903445124626,2.7784077246906236e-05,1.7174921595142223e-05
0.0010101563530042768,3.833569644484669e-05,6.65355400997214e-05
0.0009823922300711274,1.892725413199514e-05,7.743048627162352e-05
0.0009774729842320085,-4.477980110095814e-05,4.189256651443429e-05
0.0008785320678725839,-0.00012324292038101703,-1.3732546904066112e-05
0.0007003069040365517,-0.00016388986841775477,-5.597142080659978e-05
0.0005111853824928403,-0.00013855553697794676,-7.434261351590976e-05
0.0003402656875550747,-5.763518129242584e-05,-6.79642689647153e-05
0.00020381121430546045,1.403822625434259e-05,-3.443283640081063e-05
0.00010573129111435264,7.029469998087734e-06,2.7428939119999995e-06
1.2493093890952878e-05,-7.30044484953396e-05,8.534049811714794e-06
-6.059219958842732e-05,-0.00012318768131081015,-7.935605935927015e-06
-6.858773849671707e-05,-3.6652050766861066e-05,-2.35314219025895e-05
-1.0606796422507614e-05,0.00014778852346353233,-4.198074748273939e-05
-2.012933873629663e-05,0.0003247705171816051,-6.313666381174698e-05
-0.00013622600818052888,0.00040633921162225306,-8.01639398559928e-05
-0.00016883425996638834,0.00037900725146755576,-7.856368029024452e-05
-3.3690517739159986e-05,0.00029993371572345495,-5.20192006661091e-05
0.000141696393257007,0.00019000921747647226,-2.8007505534333177e-05
0.00011920924589503556,5.251168113318272e-05,-3.200132414349355e-05
-7.696443208260462e-05,-7.613345223944634e-05,-5.055094516137615e-05
-9.71794652286917e-05,-0.00011937933595618233,-5.756464452133514e-05
6.307134754024446e-05,-5.4204530897550285e-05,-4.726704355562106e-05
3.056483546970412e-05,3.673452010843903e-05,-3.548702079569921e-05
-0.00024041326832957566,6.25943357590586e-05,-3.771322371903807e-05
-0.0004096279153600335,3.7031164538348094e-05,-5.019917807658203e-05
-0.00032571208430454135,3.324795761727728e-05,-5.692458216799423e-05
-0.0001894763991003856,5.209560185903683e-05,-5.048919047112577e-05
-0.0001612568594282493,4.591674587572925e-05,-3.848275082418695e-05
-0.0001849503314588219,7.600276603625389e-06,-2.880801366700325e-05
-0.0002131554501829669,-3.17003796226345e-05,-2.4062957891146652e-05
-0.0003014020621776581,-5.6520835642004386e-05,-2.231683538411744e-05
-0.000426091137342155,-7.599886885145679e-05,-2.1648262190865353e-05
-0.00047849680413492024,-9.52441623667255e-05,-2.2119327695691027e-05
-0.00043355647358112037,-0.00010100795043399557,-2.8153732273494825e-05
-0.0003188253613188863,-8.03958173491992e-05,-3.5614331864053383e-05
-9.596672316547483e-05,-4.707867628894746e-05,-3.978229869971983e-05
0.0003171700518578291,-2.597899583633989e-05,-4.170112879364751e-05
0.0007182759582065046,-1.4203108548827004e-05,-4.562567482935265e-05
0.0007426401134580374,2.2150691165734315e-06,-5.351836807676591e-05
0.00043396229739300907,1.6280140698654577e-05,-5.5059244914446026e-05
0.0001532485766801983,2.3542170310975052e-05,-5.014654016122222e-05
3.348022801219486e-05,2.122518162650522e-05,-4.549457662506029e-05
-0.00010121824743691832,1.4729251233802643e-05,-4.004086076747626e-05
-0.0003932778490707278,2.5047280360013247e-05,-2.8452855985960923e-05
-0.0007027373067103326,3.8615766243310645e-05,-1.4143783118925057e-05
-0.0007864087820053101,2.9771132176392712e-05,-2.3523016352555715e-06
-0.0006379613187164068,2.215397216787096e-05,8.134109521051869e-06
-0.00038592336932197213,3.033460052392911e-05,1.0520091564103495e-05
-7.484037632821128e-05,4.988916089132545e-07,-4.876739239989547e-06
0.000246106501435861,-0.00010148424189537764,-3.733111952897161e-05
0.00046946509974077344,-0.00020686288189608604,-6.916257552802563e-05
0.0005663430201821029,-0.0002236556465504691,-8.437357610091567e-05
0.000496549007948488,-0.00015341609832830727,-8.269840327557176e-05
0.00016189386951737106,-7.412791455863044e-05,-7.574797928100452e-05
-0.0003073572588618845,-3.243516766815446e-05,-7.032384746707976e-05
-0.0005056509398855269,-1.5662126315874048e-05,-6.324006244540215e-05
-0.0002531937789171934,-1.0815399036800954e-05,-5.4290867410600185e-05
0.00018210445705335587,-1.4614951396652032e-05,-4.839016037294641e-05
0.0004950694856233895,-9.542064617562573e-06,-5.053767381468788e-05
0.0006929024821147323,5.746775286752381e-07,-5.914634311920963e-05
0.0009137547458522022,1.2176433301647194e-06,-6.647181726293638e-05
0.0011528197210282087,-3.0230921765905805e-06,-6.744124402757734e-05
0.0012507156934589148,-2.127970765286591e-05,-6.065106936148368e-05
0.001045914483256638,-3.60382255166769e-05,-4.013952275272459e-05
0.0006450628861784935,7.543805622844957e-06,-5.1685847211047076e-06
0.0002403971884632483,0.0001291115186177194,3.0249075280153193e-05
-8.538799738744274e-05,0.0002200731832999736,3.895492045558058e-05
-0.00033782352693378925,0.0002114511444233358,2.146318365703337e-05
-0.000490958453156054,0.00021220429334789515,-5.128117663844023e-06
-0.00045451123150996864,0.00023629091447219253,-3.4378288546577096e-05
-0.0002569137141108513,0.00018666432879399508,-6.80334196658805e-05
-5.99288941884879e-05,4.0075628930935636e-05,-0.00010817436123033985
1.8938329958473332e-05,-0.0001141901157097891,-0.00013865932123735547
3.583499710657634e-05,-0.00017521825793664902,-0.0001452425349270925
5.553972732741386e-05,-0.00013323013263288885,-0.00012822780990973115
6.388709152815863e-05,-5.0162481784354895e-05,-9.976916044251993e-05
8.300681884065853e-07,1.789964699128177e-05,-6.127008236944675e-05
-9.862410661298782e-05,5.951242201263085e-05,-2.522448448871728e-05
-0.00014090962940827012,7.706964970566332e-05,-3.6761018691322533e-06
-0.000108741907752119,7.400715549010783e-05,9.667342055763584e-06
-7.53021813579835e-05,5.776267425972037e-05,2.63918554992415e-05
-9.913295070873573e-05,4.1349660023115575e-05,4.4993346818955615e-05
-0.0001782320177881047,2.843397669494152e-05,5.8485140471020713e-05
-0.00026863557286560535,2.0998755644541234e-05,8.598531712777913e-05
-0.0003095745632890612,2.038615639321506e-05,0.00014197334530763328
-0.00027601461624726653,2.4455159291392192e-05,0.00018031138461083174
-0.0001756099081831053,2.711056004045531e-05,0.00014643372560385615
-5.593961395788938e-05,2.6980862458003685e-05,7.044312224024907e-05
4.214102227706462e-05,2.3298916858038865e-05,1.829249958973378e-05
7.997505599632859e-05,2.0676776330219582e-05,9.83921745500993e-06
1.2024439456581604e-05,3.0148981750244275e-05,1.202653584186919e-05
-0.0002502397110220045,4.5535387471318245e-05,5.2737364057975356e-06
-0.0007742753950878978,5.936248635407537e-05,4.334002028372197e-07
-0.001139714033342898,6.773874338250607e-05,5.0132475735154e-06
-0.001015963265672326,4.131850437261164e-05,2.397058324277168e-06
-0.0006024979520589113,-3.7884801713516936e-05,-1.591034742887132e-05
-0.0001210631089634262,-0.00012100630556233227,-3.3137221180368215e-05
0.00022755074314773083,-0.0001420861663063988,-3.724635826074518e-05
0.00058101920876652,-0.00011535724479472265,-3.440186264924705e-05
0.0010960500221699476,-8.1579593825154e-05,-3.569395266822539e-05
0.001517734257504344,-4.60216288047377e-05,-4.09785752708558e-05
0.0014804962556809187,-5.2010959734616335e-06,-4.1080827941186726e-05
0.0010659833205863833,3.230525180697441e-05,-3.458337960182689e-05
0.0006215849425643682,5.0880586059065536e-05,-2.6387568141217344e-05
0.00033168873051181436,4.096363772987388e-05,-2.0835477698710747e-05
0.00012893043458461761,8.531772436981555e-06,-2.1418474716483615e-05
-5.1828068535542116e-05,-2.7097281417809427e-05,-3.19641585520003e-05
-0.00014672211545985192,-5.585011240327731e-05,-5.2274677727837116e-05
-0.00014584677410311997,-5.892454646527767e-05,-7.638962415512651e-05
-0.00012053023237967864,-1.325775542682095e-06,-9.844163287198171e-05
-0.00012462653103284538,0.00010216313967248425,-0.0001041231953422539
-0.00010448921239003539,0.00015455622633453459,-8.33860322018154e-05
-5.224878259468824e-05,0.00010805630881804973,-5.285777660901658e-05
2.2430963326769415e-06,2.329963717784267e-05,-5.594494359684177e-05
1.5975223504938185e-05,-2.9745788197033107e-05,-0.00010914953600149602
1.5491284557356266e-06,-4.18683557654731e-05,-0.00016591516032349318
-7.445440587616758e-06,-3.41899722116068e-05,-0.00017224134353455156
3.279583324911073e-05,-9.996266271627974e-06,-0.00012629662523977458
9.378108370583504e-05,3.789876791415736e-05,-6.503399345092475e-05
9.341310942545533e-05,0.00011643461766652763,-6.295359071373241e-06
-5.468854942591861e-05,0.00020325358491390944,3.5210399801144376e-05
-0.00026330657419748604,0.0002649084781296551,5.69107651244849e-05
-0.00038251435034908354,0.00028936995659023523,8.784480451140553e-05
-0.00038909012801013887,0.0002528782933950424,0.00013334622781258076
-0.0003532873815856874,0.0001694833772489801,0.0001545641862321645
-0.00030778979999013245,8.164907922036946e-05,0.00011439430090831593
-0.00018322143296245486,-8.259819878730923e-06,5.8129771787207574e-05
-8.019529218472599e-07,-0.00010591519094305113,3.382149589015171e-05
0.00012520846212282777,-0.00017151670181192458,3.133336940663867e-05
0.00011578044359339401,-0.00019331651856191456,1.494100160925882e-05
-1.6808597138151526e-05,-0.00022111301950644702,-2.0662520910263993e-05
-0.0002074894291581586,-0.000268355302978307,-5.12586411787197e-05
-0.00036471016937866807,-0.000291286560241133,-6.157965253805742e-05
-0.00031640895758755505,-0.00026113621424883604,-5.790200157207437e-05
1.6421847249148414e-05,-0.00020907788712065667,-5.17218722961843e-05
0.0004471697611734271,-0.00016928341938182712,-4.294726386433467e-05
0.0007437490858137608,-0.00012030280049657449,-2.810094338201452e-05
0.0008089212351478636,-1.4491778529190924e-05,-6.0107149693067186e-06
0.0005924500874243677,0.0001310831867158413,1.1517645361891482e-05
0.00015281718515325338,0.0002588664647191763,1.57487465912709e-05
-0.0002183066972065717,0.00033975200494751334,5.366501227399567e-06
-0.0003033508837688714,0.0003460301086306572,-8.851798156683799e-06
-0.000201660324819386,0.00027312940801493824,-2.070682057819795e-05
-0.00017912049952428788,0.00016987533308565617,-2.7955600671702996e-05
-0.0003824752930086106,6.352134369080886e-05,-3.078875670325942e-05
-0.0005636801943182945,-2.0510036847554147e-05,-3.190137431374751e-05
-0.00030046410392969847,-9.871596375887748e-06,-4.4275391701376066e-05
0.00016928251716308296,9.345718717668205e-05,-6.652544107055292e-05
0.00028831503004767,0.00015719364455435425,-7.638670649612322e-05
-2.3562870410387404e-06,0.00011500186519697309,-6.745642895111814e-05
-0.0001964516268344596,1.5999026800272986e-05,-5.485734800458886e-05
0.00012520072050392628,-7.358285802183673e-05,-4.455075759324245e-05
0.0005307067767716944,-0.00012213826994411647,-3.847990956273861e-05
0.000632746668998152,-0.0001599064125912264,-3.9827165892347693e-05
0.0006142937927506864,-0.00018011797510553151,-4.451568383956328e-05
0.000555480713956058,-0.00014768238179385662,-4.92659819428809e-05
0.0004061061190441251,-7.465256203431636e-05,-4.9471658712718636e-05
0.0002433415356790647,-2.3448756110155955e-05,-3.849682252621278e-05
0.00017952543566934764,-4.605870708473958e-05,-2.527882497815881e-05
0.00020949517784174532,-0.00011632675159489736,-2.5475088477833197e-05
0.00025797230773605406,-0.0001455059536965564,-3.7347424949985e-05
0.0002627450739964843,-8.727741078473628e-05,-4.603583147400059e-05
0.00022084930969867855,-1.8977318177348934e-05,-4.1582054109312594e-05
0.00016581716772634536,-2.5353134333272465e-05,-2.94062356260838e-05
0.00013614913041237742,-7.093229214660823e-05,-2.2318019546219148e-05
0.00013857051089871675,-7.163354166550562e-05,-2.6842051738640293e-05
0.00014673049736302346,-2.1245834432193078e-05,-3.445007314439863e-05
0.00010812444816110656,2.8251488402020186e-05,-3.74265291611664e-05
-1.2068393516528886e-05,5.742725988966413e-05,-3.514922354952432e-05
-0.00017824405222199857,8.922380220610648e-05,-3.307484803372063e-05
-0.0002979655982926488,0.00012156831508036703,-3.2016137993196025e-05
-0.0003402227011974901,0.00011813935270765796,-3.1749419576954097e-05
-0.00035304061020724475,7.797004218446091e-05,-3.138116153422743e-05
-0.0003504578198771924,3.0184604838723317e-05,-2.9941980756120756e-05
-0.00041161771514452994,4.06088656745851e-06,-3.3132568205473945e-05
-0.0005005293060094118,1.2013761079288088e-05,-4.026745955343358e-05
-0.00042919296538457274,3.37951751134824e-05,-4.391178663354367e-05
-0.0002136971743311733,4.2599385778885335e-05,-3.625054523581639e-05
3.9959122659638524e-05,4.8367503040935844e-05,-1.4523796380672138e-05
0.0002510017075110227,9.056227281689644e-05,-4.849194283451652e-06
0.0003688302240334451,0.00014939054381102324,-3.321385884191841e-05
0.00043899714364670217,0.000161927702720277,-8.438134682364762e-05
0.0004826853983104229,0.00012322113616392016,-0.00012924952898174524
0.0003805300802923739,5.329603663994931e-05,-0.00016352727834600955
4.505547258304432e-05,-6.14920281805098e-05,-0.0001885250094346702
-0.00032862418447621167,-0.0001946922711795196,-0.00018729678413365036
-0.0004763791221193969,-0.0002583806635811925,-0.00014862915850244462
-0.00041925316327251494,-0.00017866454436443746,-7.53236745367758e-05
-0.0002808680583257228,1.2450066606106702e-05,3.369497062521987e-05
-8.554798841942102e-05,0.00018284122052136809,0.00016441235493402928
0.00013758243585471064,0.0002469262690283358,0.0002556419640313834
0.0003007881750818342,0.000240169363678433,0.00025058118626475334
0.00035568149178288877,0.00019498106848914176,0.00017067116277758032
0.00037300228723324835,8.62270244397223e-05,7.982538227224723e-05
0.0004323694738559425,-5.1107235776726156e-05,8.780696589383297e-06
0.0004186536534689367,-0.00011350746353855357,-4.823104609386064e-05
0.00018143844499718398,-5.072878047940321e-05,-9.014590614242479e-05
-0.0001719012507237494,4.266770702088252e-05,-9.52472400967963e-05
-0.00042278581531718373,4.16481816500891e-05,-5.867889922228642e-05
-0.000426548533141613,-4.07224397349637e-05,-1.171955227619037e-05
-0.00017171974468510598,-0.00010991543967975304,2.59869011642877e-05
0.00015074155817274004,-0.0001241681893588975,4.983880717190914e-05
0.0003043699252884835,-9.649855928728357e-05,6.115372525528073e-05
0.0002672867849469185,-3.836221367237158e-05,6.159179611131549e-05
0.0001443153159925714,4.610043833963573e-05,4.548046854324639e-05
5.7942146668210626e-05,0.00012496697308961302,2.058189784293063e-05
-1.9408682419452816e-05,0.00015591717965435237,-4.0162190089176875e-06
-0.0001745834742905572,0.0001273179514100775,-1.8841916244127788e-05
-0.0003594069858081639,7.282532169483602e-05,-2.5934281438821927e-05
-0.000475929380627349,4.1561652324162424e-05,-2.941153979918454e-05
-0.00047003960935398936,5.236959259491414e-05,-3.6442037526285276e-05
-0.000353789801010862,7.51833722461015e-05,-4.48315404355526e-05
-0.00018929041107185185,8.196748240152374e-05,-5.135424362379126e-05
8.624004840385169e-05,7.128305151127279e-05,-5.685377982445061e-05
0.0004918963531963527,5.720277113141492e-05,-5.823134779348038e-05
0.0007563132676295936,5.522104765987024e-05,-5.086095188744366e-05
0.0006620587082579732,6.98155490681529e-05,-3.6796544009121135e-05
0.0003260891535319388,0.00010545954864937812,-2.820795816660393e-05
-2.6956617148243822e-05,0.00015324192645493895,-3.1946714443620294e-05
-0.0003755645011551678,0.00017859805666375905,-4.665166852646507e-05
-0.0007194401696324348,0.00014385570830199867,-5.969349876977503e-05
-0.0008212469983845949,3.914236367563717e-05,-6.49235735181719e-05
-0.0005128551856614649,-0.0001267224142793566,-6.014529935782775e-05
2.2970843929215334e-05,-0.0003060495073441416,-4.2817780922632664e-05
0.0004938757047057152,-0.00042070928611792624,-1.8680711946217343e-05
0.0007099031354300678,-0.0004084054089616984,-8.4241191871115e-06
0.0007683796575292945,-0.0003020199073944241,-1.0853293133550324e-05
0.0007827312801964581,-0.0001710499491309747,-1.4720662875333801e-05
0.00070572440745309,-4.523753887042403e-05,-2.3171603970695287e-05
0.000496117805596441,6.330528412945569e-05,-3.327189915580675e-05
0.00014555235975421965,0.0001227443863172084,-3.826467946055345e-05
-0.00016567969578318298,0.00010987045970978215,-3.854323585983366e-05
-0.00024088688951451331,6.69201253913343e-05,-4.0947434172267094e-05
-0.00014412061136681587,3.359959737281315e-05,-4.7609279135940596e-05
-1.763676482369192e-05,2.431702523608692e-05,-5.067497841082513e-05
9.157451859209687e-05,2.250429315608926e-05,-4.7736884880578145e-05
0.00021400472905952483,2.152123852283694e-05,-4.0885064663598314e-05
0.00029642239678651094,2.32140864682151e-05,-3.4932927519548684e-05
0.0002464194840285927,2.3275868443306535e-05,-3.34207943524234e-05
7.326159538934007e-05,1.1336154784657992e-05,-3.517377990647219e-05
-0.00012038528075208887,-1.1974934750469401e-05,-3.8109039451228455e-05
-0.00020799587946385145,-2.2108060875325464e-05,-3.920122981071472e-05
-0.00013262445281725377,6.386034328897949e-06,-3.491025563562289e-05
2.606022280815523e-05,6.937779107829556e-05,-2.5495006411802024e-05
0.000133886220282875,0.00011474089842522517,-1.372521001030691e-05
0.00016801917809061706,9.384057193528861e-05,4.3409944083805385e-08
0.00014475485659204423,1.4547023965860717e-05,1.0788970030262135e-05
4.6469223889289424e-05,-5.903967030462809e-05,1.1214556252525654e-05
-0.00011341786739649251,-7.462192297680303e-05,-5.400945155997761e-06
-0.00025608655414544046,-1.935927866725251e-05,-3.677165295812301e-05
-0.0003400478162802756,7.381195609923452e-05,-7.23075499990955e-05
-0.0004152308974880725,0.0001453961303923279,-9.901329030981287e-05
-0.0005125221214257181,0.0001373041159240529,-0.00011393081513233483
-0.0005538542754948139,3.998072861577384e-05,-0.00011867041030200198
-0.00043033770634792745,-9.624138328945264e-05,-0.00010487331019248813
-0.0001712316443445161,-0.00015911877562757581,-7.877344614826143e-05
4.4920845539309084e-05,-0.00011583494779188186,-5.1520735723897815e-05
0.00025389326037839055,-3.261366509832442e-05,-2.7160125682712533e-05
0.0006446092156693339,4.2587213101796806e-05,-6.980593752814457e-06
0.0009856241522356868,7.685668970225379e-05,1.1481178262329195e-05
0.0007440695189870894,7.34494169591926e-05,1.5722171156085096e-05
-9.461278386879712e-05,6.482267053797841e-05,1.9605829493229976e-06
-0.0010298109846189618,7.951216684887186e-05,-1.6483618310303427e-05
-0.0015731407329440117,6.653252785326913e-05,-3.0461065762210637e-05
-0.0015351177426055074,5.5363452702295035e-06,-4.7229546908056363e-05
-0.00109506631270051,-2.573570418462623e-05,-6.602206849493086e-05
-0.0005355711909942329,1.3239805412013084e-05,-6.993287388468161e-05
9.656219481257722e-05,6.182389188325033e-05,-4.1194925870513543e-05
0.0009476690320298076,6.536200817208737e-05,2.1048286725999787e-05
0.0018328188452869654,4.268566772225313e-05,9.148423851002008e-05
0.002208598190918565,2.4773726181592792e-05,0.000127564329886809
0.0018735144985839725,1.6307696569128893e-05,0.0001068249111995101
0.0012026038020849228,1.4215262126526795e-05,5.558190605370328e-05
0.0006105482461862266,2.3151360437623225e-05,1.8827919120667502e-05
0.00021313733304850757,2.431786742818076e-05,1.828263521019835e-05
-4.550358426058665e-06,-5.270258043310605e-06,3.481041858321987e-05
-2.0243449398549274e-05,-4.3911444663535804e-05,2.778538691927679e-05
9.346743900096044e-05,-4.360027378425002e-05,-1.6298232367262244e-05
0.00018723547691479325,6.936726549611194e-06,-6.40216821921058e-05
0.0001876642636489123,5.68843461223878e-05,-8.306563540827483e-05
0.00013058853801339865,5.755288657383062e-05,-7.187148730736226e-05
0.00011665766214719042,2.9177766919019632e-05,-5.492601485457271e-05
0.00018425607413519174,1.6534748283447698e-05,-4.278667620383203e-05
0.00024013096117414534,3.122415000689216e-05,-1.6034802683861926e-05
0.00021839022519998252,3.421632936806418e-05,3.344720244058408e-05
0.00012175479059806094,-1.2405051165842451e-05,7.26027792552486e-05
-0.00011477706721052527,-4.885326052317396e-05,5.9786874771816656e-05
-0.0005693863495253026,4.209469261695631e-05,8.916684237192385e-06
-0.0009683584794402122,0.00020030478481203318,-2.7500029318616726e-05
-0.0009651483269408345,0.00027494769892655313,-2.6687153876991943e-05
-0.0006749494350515306,0.00020746749942190945,-9.04020453162957e-06
-0.00041381054325029254,2.7442478312877938e-05,-8.148082088155206e-06
-0.00033309051650576293,-0.00015648282715119421,-2.9913575417594984e-05
-0.0003275989438407123,-0.00024364703858736902,-5.821537706651725e-05
-0.0002546558389440179,-0.0002210840320913121,-7.712061051279306e-05
-8.485059515805915e-05,-0.00015421892749145627,-7.981556700542569e-05
9.008211782202125e-05,-9.193694859277457e-05,-6.869116623420268e-05
0.00017420071526430547,-4.420640107127838e-05,-5.2589042752515525e-05
0.00016648466407787055,-4.405600975587731e-06,-4.3104835640406236e-05
0.0001337056019110605,2.0488074369495735e-05,-4.4312055251793936e-05
0.00014542647113557905,2.0066376237082295e-05,-5.203065666137263e-05
0.00020772326388396323,-1.1392855867597973e-06,-5.6226635933853686e-05
0.00023238794528879225,-2.086604399664793e-05,-5.196862912271172e-05
0.00010275060776621103,-1.7516786101623438e-05,-4.560944580589421e-05
-7.93967628851533e-05,1.2978077393199783e-05,-4.0460621676174924e-05
-0.00010610052413539961,4.896230166195892e-05,-3.4306089219171554e-05
-2.191209750890266e-05,6.273451435845345e-05,-3.4691529435804114e-05
3.686073250719346e-05,4.754415203933604e-05,-4.976366471964866e-05
5.5194366723299026e-05,2.589628638816066e-05,-7.774639379931614e-05
5.46432493138127e-05,3.584342630347237e-05,-0.00010363828187109903
3.300574826425873e-05,7.912579894764349e-05,-0.00011491931945784017
-1.1959152288909536e-05,0.00011732988059520721,-0.00011101435666205361
-7.212103810161352e-05,0.00012731800961773843,-0.00010024261428043246
-0.00013493094593286514,0.00011077568342443556,-8.858920773491263e-05
-0.00015187171811703593,7.141278911149129e-05,-7.245040615089238e-05
-0.0001301029697060585,1.210194022860378e-05,-2.8224423658684827e-05
-0.00014449971786234528,-4.555120540317148e-05,5.412275277194567e-05
-0.00024814100470393896,-7.64196811360307e-05,0.00011382123921066523
-0.00032772839767858386,-7.47147059882991e-05,0.00010897976608248428
-0.00026347869425080717,-5.3612089686794207e-05,7.640778494533151e-05
-0.00015529253869317472,-5.493589924299158e-05,5.3602809202857316e-05
-0.00015293853357434273,-9.65330473263748e-05,4.413723945617676e-05
-0.00015723847900517285,-0.00015279949002433568,4.3495241698110476e-05
4.91553291794844e-05,-0.00017595537065062672,4.6452059905277565e-05
0.00040384699241258204,-0.0001324212789768353,4.14977730542887e-05
0.0006298762164078653,-3.006628503499087e-05,2.6593384973239154e-05
0.0006129124667495489,8.129784691845998e-05,9.678432434157003e-06
0.000508263474330306,0.00015077779244165868,-1.7096057263188413e-06
0.0004632493946701288,0.00016021828923840076,-7.155063030950259e-06
0.00043798243859782815,0.00013033903087489307,-1.3505027709470596e-05
0.0003175249439664185,0.00010215395013801754,-2.57013707596343e-05
8.332116703968495e-05,9.891715308185667e-05,-3.9504480810137466e-05
-0.00015793387137819082,0.00011474295024527237,-4.846288720727898e-05
-0.0003186396788805723,0.00013308465713635087,-4.825560245080851e-05
-0.0004073737363796681,0.00013967585982754827,-4.404906940180808e-05
-0.00036172312684357166,0.0001160332394647412,-4.764511686516926e-05
-0.00018007012840826064,6.685439439024776e-05,-6.026795381330885e-05
0.00010036736057372764,2.2640197130385786e-05,-7.272824586834759e-05
0.00040789187187328935,-1.9403860278544016e-05,-7.70993428886868e-05
0.0005474205827340484,-7.018061296548694e-05,-7.535051554441452e-05
0.00046878025750629604,-0.00011981743591604754,-6.702097743982449e-05
0.00025316423852927983,-0.00015802761481609195,-5.463133129524067e-05
2.342917832720559e-05,-0.000165045028552413,-4.754573819809593e-05
-0.00011148680641781539,-0.0001293941750191152,-4.7216759412549436e-05
-0.00019310442439746112,-6.721985118929297e-05,-3.636985638877377e-05
-0.0003230357251595706,-1.8363296476309188e-05,-9.858181329036597e-07
-0.0004665476153604686,-2.701024413909181e-06,4.3017960706492886e-05
-0.0005152269150130451,-1.4203773389454e-05,6.498190487036481e-05
-0.00038053875323385,-3.740678948815912e-05,5.2405786846065894e-05
-8.695027645444497e-05,-6.119676982052624e-05,2.285578375449404e-05
0.0002496390079613775,-7.284987077582628e-05,1.3333475408217055e-06
0.0005404344410635531,-5.466964648803696e-05,-6.022698471497279e-06
0.0007735033868812025,3.2703185297577875e-06,-1.0230683074041735e-05
0.0008874492486938834,8.395899931201711e-05,-1.8734814148047008e-05
0.0007554242038168013,0.0001452284777769819,-2.566587681940291e-05
0.00042308997944928706,0.00015504739712923765,-2.3995182345970534e-05
0.00011779747001128271,0.00010635028593242168,-1.7782791474019177e-05
-3.775530558414175e-06,4.9446767661720514e-05,-1.9527104086591862e-05
1.7630241927690804e-05,6.062438842491247e-05,-2.577728264441248e-05
6.41990263829939e-05,0.00011374178575351834,-2.572608536866028e-05
7.085515244398266e-05,0.00012228671403136104,-2.4319442673004232e-05
7.085102697601542e-05,7.564814586658031e-05,-2.8107757316320203e-05
8.642838656669483e-05,2.217860492237378e-05,-3.840861245407723e-05
6.07976435276214e-05,2.1599307729047723e-06,-4.9150665290653706e-05
-3.300721800769679e-05,5.36164998266031e-06,-4.989692388335243e-05
-8.37544139358215e-05,1.4473261217062827e-05,-4.1994760977104306e-05
-4.9886446504388005e-05,1.437498940504156e-05,-3.742368789971806e-05
-7.89312762208283e-05,1.2825106750824489e-05,-3.5558590752771124e-05
-0.0002584451576694846,5.024260462960228e-05,-3.342728814459406e-05
-0.0004910819698125124,9.271849557990208e-05,-3.3077878470066935e-05
-0.0006339526735246181,7.003209611866623e-05,-3.815358650172129e-05
-0.0006072742398828268,-1.571993561810814e-05,-4.634688957594335e-05
-0.0004139512893743813,-0.0001034198867273517,-5.138392225489952e-05
-0.00013038489851169288,-0.0001434775913367048,-4.861636261921376e-05
0.00013796986604575068,-0.000120936194434762,-4.248026743880473e-05
0.0003296118520665914,-5.9317277191439644e-05,-3.9587554056197405e-05
0.0004223136347718537,-3.98858537664637e-06,-3.803172512562014e-05
0.0004120598896406591,2.497433524695225e-05,-3.7420406442834064e-05
0.0003065176715608686,3.382439535926096e-05,-4.154702401137911e-05
0.00012315044295974076,3.9080037822714075e-05,-5.266457446850836e-05
-5.985813550068997e-05,5.6718617997830734e-05,-6.247900455491617e-05
-0.00013678775576408952,7.315573748201132e-05,-6.140751065686345e-05
-0.00010234162618871778,5.07667864440009e-05,-4.6386518079089e-05
-4.8032299673650414e-05,6.053779088688316e-06,-2.817332097038161e-05
-3.941566774301464e-06,-1.9194627384422347e-05,-2.7777439754572697e-05
7.593109330628067e-05,-3.7250159948598593e-05,-5.418024375103414e-05
0.0001323055912507698,-5.614153269561939e-05,-8.17255349829793e-05
-1.606282421562355e-05,-4.205116056255065e-05,-7.220702536869794e-05
-0.0002340482169529423,6.143085101939505e-06,-2.66218285105424e-05
-0.00023647441412322223,3.70068519259803e-05,3.1418833259522216e-06
-0.00011052384070353583,2.0353572836029343e-05,-2.1338146325433627e-05
-9.708443394629285e-05,-1.0034480510512367e-05,-6.578239845111966e-05
-0.00024009286426007748,-2.696618321351707e-05,-8.484384306939319e-05
-0.00026760343462228775,-3.570352419046685e-05,-7.478169573005289e-05
1.5691077351220883e-05,-4.4189804611960426e-05,-4.884437657892704e-05
0.00036275593447498977,-4.6959361498011276e-05,-2.262908310513012e-05
0.0004760224255733192,-1.962911119335331e-05,-3.5098832995572593e-06
0.0003971280239056796,4.89812227897346e-05,2.209256280139016e-07
0.0003213991585653275,0.0001400388719048351,6.026583378115902e-06
0.0002987186599057168,0.00019490017439238727,3.731783726834692e-05
0.00023099459940567613,0.00016665390285197645,7.499509229091927e-05
0.00010763395403046161,7.260495476657525e-05,7.941570947878063e-05
8.485335456498433e-06,-1.2438069461495616e-05,4.5538741687778383e-05
-9.777826926438138e-05,-3.644116077339277e-05,4.912019903713372e-06
-0.00023913269978947937,-9.830267117649782e-06,-1.1354594789736439e-05
-0.0002882849075831473,2.3864758986746892e-05,6.988601626289892e-07
-0.00011069655738538131,2.8962065698578954e-05,1.2238710951351095e-05
0.00021808926248922944,1.3963439187136828e-06,-6.5337135310983285e-06
0.0004562422982417047,-3.847973493975587e-05,-5.697758388123475e-05
0.00047659254050813615,-6.233298336155713e-05,-0.00010991743329213932
0.00042914494406431913,-4.498129783314653e-05,-0.00013930024579167366
0.0004585242713801563,1.6586394849582575e-05,-0.0001411203556926921
0.0004451601125765592,7.250816997839138e-05,-0.00012763119593728334
0.0002682788181118667,7.290300709428266e-05,-0.0001071713340934366
4.605675349012017e-05,2.7575639251153916e-05,-8.356814942089841e-05
-5.911089465371333e-05,-1.616480585653335e-05,-4.71079874841962e-05
-2.3333728677243926e-05,-2.818668508552946e-05,3.2856733014341444e-05
3.8110691093606874e-05,-4.845569947065087e-06,0.0001038848131429404
3.099266177741811e-05,3.245360130677e-05,9.113721898756921e-05
-7.117049244698137e-05,5.226899520494044e-05,3.6300360079621896e-05
-0.0001907313271658495,5.729677650379017e-05,1.2798231182387099e-05
-0.00020940911781508476,6.554986612172797e-05,3.5860619391314685e-05
-0.00015928654465824366,6.186208338476717e-05,5.56202903680969e-05
-0.00010174086492042989,3.3695498132146895e-05,5.100947601022199e-05
-6.0207203205209225e-05,-2.628469701448921e-06,3.442171509959735e-05
-2.964574196084868e-05,-3.4154880268033594e-05,1.9529485143721104e-05
3.2146153898793273e-06,-5.436308492789976e-05,8.17106592876371e-06
-7.244411790452432e-06,-5.5285920097958297e-05,4.898651241092011e-06
-0.00014401965017896146,-3.828169792541303e-05,1.1703737982315943e-05
-0.0003944571362808347,-1.2664231689996086e-05,2.0648511053877883e-05
-0.0006024506292305887,1.695565697446e-05,2.3049840820021927e-05
-0.0006159887998364866,3.864682366838679e-05,1.0124545951839536e-05
-0.0004581815446726978,1.7865575500763953e-05,-1.2429250091372523e-05
-0.00024412132916040719,-4.003297726740129e-05,-3.4705950383795425e-05
3.020690019184258e-05,-6.133886927273124e-05,-4.846984302275814e-05
0.00042577413842082024,-1.7694546841084957e-05,-5.7409411965636536e-05
0.0008072678465396166,3.4046825021505356e-05,-6.591427518287674e-05
0.0009515593410469592,4.9204565584659576e-05,-7.576819189125672e-05
0.0008496152586303651,4.312469900469296e-05,-7.860243931645527e-05
0.0006705184350721538,5.64309666515328e-05,-7.340384763665497e-05
0.0005261259502731264,0.00011638659634627402,-6.05268869549036e-05
0.0003573036810848862,0.00018473630188964307,-4.873431316809729e-05
5.8575602452037856e-05,0.0001745659828884527,-4.051774521940388e-05
-0.0002965281018987298,7.097153866197914e-05,-2.6539803002378903e-05
-0.0004449435800779611,-3.7354406231315807e-05,-5.433495971374214e-06
-0.0003867289051413536,-9.064406913239509e-05,3.5549171570892213e-06
-0.00035583856515586376,-0.00010910355922533199,-4.090238235221477e-06
-0.00047938880743458867,-0.0001254525122931227,-1.713782512524631e-05
-0.0005408017314039171,-0.00013952876906841993,-2.798147215798963e-05
-0.00033265017555095255,-0.00011591902875807136,-3.3663087378954515e-05
-9.909939399221912e-05,-4.5705895900027826e-05,-3.506189023028128e-05
-1.4857593669148628e-05,2.5661121981102042e-05,-3.554881186573766e-05
-3.8443027733592317e-05,4.300602449802682e-05,-3.803066647378728e-05
2.4525510525563732e-05,1.4074935279495548e-05,-3.228266359656118e-05
0.00026882727979682386,-2.0784525986528024e-05,-1.907120349642355e-05
0.0005586440092884004,-3.3698775951052085e-05,-1.0341446795791853e-05
0.0006850045174360275,-2.902276537497528e-05,-1.543876715004444e-05
0.0005559007404372096,-1.9493982108542696e-05,-2.7794429115601815e-05
0.0002726588863879442,-2.37557264881616e-06,-3.785754961427301e-05
2.2331858417601325e-05,1.811201946111396e-05,-4.463725781533867e-05
-8.545400487491861e-05,2.8126672987127677e-05,-5.185221743886359e-05
-8.835861081024632e-05,1.6276257156278007e-05,-5.9789203078253195e-05
-4.2136263800784945e-05,-3.6253052257961826e-06,-6.581408524652943e-05
1.6532036397620686e-06,-7.40761879569618e-06,-6.620038038818166e-05
-8.95141147339018e-06,1.4746616216143593e-05,-6.364223372656852e-05
-7.869518594816327e-05,4.6998789912322536e-05,-6.507862417493016e-05
-8.197857823688537e-05,7.353781256824732e-05,-7.55040964577347e-05
5.025560312788002e-05,8.495057409163564e-05,-0.000102428843092639
0.0002607949136290699,8.745327068027109e-05,-0.00015037687262520194
0.0004070970171596855,8.276492008008063e-05,-0.00019718141993507743
0.00037790319765917957,4.356987483333796e-05,-0.00020250282250344753
0.00021243400988169014,-2.9605478630401194e-05,-0.00016214532661251724
3.428469062782824e-05,-7.768216164549813e-05,-0.0001010115011013113
-0.00011632186942733824,-7.675870438106358e-05,-3.5683293390320614e-05
-0.00028315826784819365,-6.483958713943139e-05,1.7906024368130602e-05
-0.0004394630959723145,-5.64647234568838e-05,3.8716625567758456e-05
-0.0005120197311043739,2.365731916142977e-06,4.9465594202047214e-05
-0.0005198945291340351,0.00010183302219957113,0.00011432408064138144
-0.0004708422056864947,0.00014720737817697227,0.00022890054970048368
-0.0003543416387401521,0.00010665960871847346,0.0002943476429209113
-0.00020555300579871982,2.5004250346682966e-05,0.00024483565357513726
4.7670400817878544e-05,-3.736056896741502e-05,0.0001274497335543856
0.00048701197374612093,-6.025383481755853e-05,2.776066139631439e-05
0.0008643035544082522,-5.698382301488891e-05,-1.4350132005347405e-05
0.000850601471029222,-3.726122304215096e-05,-1.5279203580575995e-05
0.0005156436236575246,-8.568878797632351e-07,-3.0432358926191228e-06
0.00020447467977646738,3.757758895517327e-05,5.221859282755759e-06
0.00013097337796352804,5.897261871723458e-05,1.6673856180204893e-06
0.00022844817431177944,5.4592721426161006e-05,-1.2740204510919284e-05
0.0003149020194541663,2.674674578884151e-05,-2.8642072720685974e-05
0.0003042923053726554,-4.317588718549814e-06,-3.600510899559595e-05
0.0002363120875088498,-1.0966399713652208e-05,-3.4615837648743764e-05
0.0001354668929707259,1.5475761756533757e-06,-3.654453030321747e-05
1.5613550203852355e-05,1.9810369849437848e-05,-4.7377339797094464e-05
-0.00011303637438686565,4.8143076128326356e-05,-5.720564877265133e-05
-0.0002943553263321519,7.380237366305664e-05,-6.163867510622367e-05
-0.0005764117813669145,6.733942427672446e-05,-6.375277735060081e-05
-0.0007993658073246479,8.361894288100302e-06,-6.672428571619093e-05
-0.0007279025157913566,-4.6646800910821185e-05,-5.8580808399710804e-05
-0.0004886011010967195,-3.6863904824713245e-05,-2.655501702975016e-05
-0.00031022398616187274,1.3242318345874082e-05,1.80853639903944e-05
-0.0001474009914090857,5.856939242221415e-05,3.7351557693909854e-05
0.0001409955439157784,5.895549838896841e-05,1.2393989891279489e-05
0.0004557758220471442,1.546646308270283e-05,-2.619294355099555e-05
0.00040546979289501905,-2.2975404135650024e-05,-4.140927194384858e-05
1.3235898222774267e-05,-3.4378242617094656e-06,-2.975871757371351e-05
-0.0002093146467814222,7.178914529504254e-05,-1.317588976235129e-05
-1.1561367500689812e-05,0.00016113852325361222,-8.28582142275991e-06
0.0003814318624790758,0.00021962804021313787,-1.2147582310717553e-05
0.0006711616297252476,0.00021660869242623448,-1.9177805370418355e-05
0.0006881685112603009,0.00015052847447805107,-2.836229577951599e-05
0.00038817274617031217,4.164250276517123e-05,-4.161398101132363e-05
-6.674200994893909e-05,-8.808869461063296e-05,-5.6792832765495405e-05
-0.00038064547698013484,-0.0002034661010839045,-6.788683094782755e-05
-0.00039092297083698213,-0.00023536915250588208,-7.1105663664639e-05
-0.00018284325778950006,-0.00017995094822254032,-6.861985457362607e-05
8.160689321812242e-05,-0.00010484238737262785,-6.633985321968794e-05
0.0003182391810696572,-2.8988235499127768e-05,-6.692737224511802e-05
0.0005477265221998096,4.601184627972543e-05,-6.875732651678845e-05
0.0007587368017993867,5.805564433103427e-05,-6.613534787902609e-05
0.000830808945465833,1.4595146240026224e-05,-5.718369720852934e-05
0.0006442736485041678,-2.6782655027091096e-07,-4.7325414925580844e-05
0.0002327867114217952,4.845347211812623e-05,-4.2909698095172644e-05
-0.00020907972066197544,0.00011122855357825756,-4.395454016048461e-05
-0.0004544932162389159,0.00012184691877337173,-4.375593562144786e-05
-0.000453134038252756,9.104899800149724e-05,-3.905390258296393e-05
-0.0003707525029312819,6.18011035840027e-05,-3.2277235732181e-05
-0.0003172815777361393,5.294819493428804e-05,-2.7468624466564506e-05
-0.0002680825418792665,6.017881605657749e-05,-3.0287003028206527e-05
-0.0002310981653863564,5.755096208304167e-05,-3.61107595381327e-05
-0.00021562409528996795,3.430861761444248e-05,-3.778752943617292e-05
-0.00024907177430577576,7.89917066867929e-06,-2.932506140496116e-05
-0.0003171446151100099,-1.656364111113362e-05,-1.3841462532582227e-05
-0.00035191926872357726,-4.981285746907815e-05,1.2138474403400323e-06
-0.0003023110912181437,-9.203798981616274e-05,3.771702495214413e-06
-0.00018553834524936974,-0.0001227471511811018,-1.72888958331896e-05
-3.223971725674346e-05,-0.00012084720947314054,-5.7485405704937875e-05
0.00012719450751319528,-8.715239528100938e-05,-9.5639108621981e-05
0.0003102840855717659,-4.698874181485735e-05,-0.00011711690603988245
0.0005405166884884238,-2.7385956855141558e-05,-0.000123810168588534
0.0006899791187606752,-2.610445153550245e-05,-0.00011714683205354959
0.00061128253582865,-2.1773390471935272e-05,-9.891192166833207e-05
0.0003759663668461144,-9.821903404372279e-06,-8.067959424806759e-05
0.00017257215222343802,1.9537810658221133e-06,-7.600729441037402e-05
6.533184205181897e-05,2.101652353303507e-05,-7.079530041664839e-05
1.3036625205131713e-05,5.552232323680073e-05,-3.0002000130480155e-05
-6.759579264326021e-05,8.285449439426884e-05,3.646416371339001e-05
-0.00013637082884088159,7.631164771737531e-05,6.89228400005959e-05
-9.13986805244349e-05,3.97988005715888e-05,6.37370758340694e-05
1.2392183634801768e-05,-4.017607807327295e-06,8.98768485058099e-05
5.173181489226408e-05,-2.867480907298159e-05,0.00014553136134054512
-0.00013443463831208646,-1.6453339412692003e-05,0.00014427612768486142
-0.0004904156667180359,2.6118808818864636e-05,7.640398689545691e-05
-0.0006444534519687295,0.00011169366916874424,8.186631021089852e-06
-0.0004914467572234571,0.0002164278266718611,-2.3083281121216714e-05
-0.0002000781532842666,0.00024091635714285076,-3.405843017389998e-05
2.8843895051977597e-05,0.00016134523320943117,-4.4658994738711044e-05
0.0002559930144343525,4.731493390863761e-05,-5.172788223717362e-05
0.000542486144695431,-4.566245115711354e-05,-4.3803051084978506e-05
0.0006949385860934854,-0.00011286209337413311,-2.924247928604018e-05
0.0006168410181999207,-0.0001380947942379862,-2.7154121198691428e-05
0.0003935206914320588,-0.00010476016177562997,-4.2818104702746496e-05
0.00018917821580544114,-4.10824031860102e-05,-6.222289812285453e-05
8.904217975214124e-05,1.0400275641586632e-05,-6.865588511573151e-05
8.424584666499868e-05,3.002962694154121e-05,-6.169849802972749e-05
0.00010469267726875842,2.7614614737103693e-05,-5.374991087592207e-05
9.262147796107456e-05,1.3658899661095347e-05,-5.407735807239078e-05
3.194540477124974e-05,-7.184371497714892e-06,-5.7619639846961945e-05
-5.576682451646775e-05,-2.686788866412826e-05,-5.469426105264574e-05
-0.00013509114796761423,-3.349913458805531e-05,-3.093210398219526e-05
-0.00014847388956695795,-3.272115282015875e-05,1.8258728232467547e-05
-4.8621921450830996e-05,-2.8078906325390562e-05,7.556527998531237e-05
0.0001430495030945167,-1.2725789929390885e-05,0.00010133871546713635
0.00031257144291885197,7.547396762674907e-06,7.532056770287454e-05
0.000372227281332016,7.82667029852746e-06,2.1258647393551655e-05
0.00025462560006417334,-2.274294638482388e-05,-1.6395548300351948e-05
-4.25266771344468e-05,-6.315642531262711e-05,-1.9737668480956927e-05
-0.0003355650987941772,-6.742293771822006e-05,-1.4877202374918852e-05
-0.000488375429995358,2.7018937544198707e-05,-2.2476055164588615e-05
-0.000498307344969362,0.00014161155559122562,-3.045296762138605e-05
-0.00043000662117265165,0.00014687114162370563,-3.8691796362400055e-05
-0.000341012462740764,7.359221490332857e-05,-5.838028300786391e-05
-0.0002385640691500157,2.5447159714531153e-05,-8.045568392844871e-05
-0.00012309738667681813,4.023473593406379e-05,-9.236082405550405e-05
3.8539485103683546e-05,5.072530620964244e-05,-9.32256443775259e-05
0.00019703824364114553,2.7742797101382166e-05,-9.274670446757227e-05
0.0002784710086416453,4.164919573668158e-06,-9.714939369587228e-05
0.00032375461887568235,1.3549106370192021e-05,-0.00010180639219470322
0.00039769092109054327,5.173927638679743e-05,-9.343338024336845e-05
0.00036788638681173325,7.847894448786974e-05,-6.497572758235037e-05
7.284615276148543e-05,5.154996324563399e-05,-1.641684320929926e-05
-0.00033808546140789986,-2.7471800422063097e-05,4.7845001972746104e-05
-0.0005469061434268951,-9.909886284731328e-05,0.00010380146704846993
-0.0004231637576594949,-0.0001189616450574249,0.00011879244266310707
-9.420011338079348e-05,-0.00010366866627009585,8.433062612311915e-05
0.00025162348174490035,-8.20332788862288e-05,2.8566279070219025e-05
0.00048215227434411645,-4.436924064066261e-05,-1.2766486179316416e-05
0.0005456915823742747,3.324593762954464e-06,-2.839723129000049e-05
0.0004101810627616942,1.324614913755795e-05,-3.0032419090275653e-05
6.451867375290021e-05,-2.6514468117966317e-05,-3.178207407472655e-05
-0.0003081324975937605,-6.396671233233064e-05,-4.183068813290447e-05
-0.0003994034486822784,-7.68941972637549e-05,-6.301671965047717e-05
-0.0001370371028315276,-3.768586248042993e-05,-8.578899723943323e-05
0.0002757466572802514,4.525377516984008e-05,-9.367545135319233e-05
0.0005352709558792412,8.341802458744496e-05,-7.897996692918241e-05
0.000498180219437927,4.2500952986301854e-05,-4.0635670302435756e-05
0.00027009175391867757,2.601707365101902e-06,-1.3532388720705057e-06
6.091965769883245e-05,1.158381473942427e-05,1.0113401003764011e-05
-1.880467425507959e-05,3.7069166864966974e-05,-2.214518417531508e-06
2.087924258376006e-05,5.3679752454627305e-05,-8.845462616591249e-06
0.00018856828683055937,5.1165316108381376e-05,8.04559385869652e-06
0.00041463409434072673,3.997987005277537e-05,2.6060952222906053e-05
0.0005128317279741168,4.464099038159475e-05,2.81661850749515e-05
0.0003772133495658636,7.526704575866461e-05,1.647630415391177e-05
2.960350138891954e-05,0.00010922297951765358,7.9446272138739e-07
-0.00035235853283666074,0.00012212860747240484,-1.1303731298539788e-05
-0.0005123908631503582,0.00010905634553637356,-1.8606766388984397e-05
-0.000386157538741827,8.45550384838134e-05,-2.3675180273130536e-05
-0.00013944163220003247,6.85435879859142e-05,-2.538317858125083e-05
3.25046967191156e-05,7.104429823812097e-05,-2.0203446183586493e-05
0.00010037689207820222,8.497633825754747e-05,-1.4516655937768519e-05
0.00015679669741075486,9.247860725736246e-05,-1.5208843251457438e-05
0.0002439454256091267,8.509951294399798e-05,-2.157111157430336e-05
0.00028222354012541473,7.362476753769442e-05,-2.7840027541969903e-05
0.0002160802250728011,7.493838347727433e-05,-3.0841292755212635e-05
8.9487642981112e-05,8.984189480543137e-05,-2.607975693535991e-05
-3.546263906173408e-05,9.356751252198592e-05,-1.6521860743523575e-05
-0.0001654006337048486,4.841099143959582e-05,-1.3142347597749904e-05
-0.00035420499625615776,-3.606573591241613e-05,-2.581557782832533e-05
-0.0005580407450906932,-0.00011177237320225686,-4.983528924640268e-05
-0.0005389460129663348,-0.0001598065864527598,-7.09121668478474e-05
-0.00026052535395137966,-0.0001678794651525095,-8.042836998356506e-05
-5.5986402003327385e-06,-0.00014147207548376173,-7.868079410400242e-05
0.00010642158304108307,-0.00014210212975740433,-8.860605885274708e-05
0.00018481604638509452,-0.00014893952175043523,-0.000133262830786407
0.00032411422580480576,-8.883965347195044e-05,-0.00019470010010991246
0.00047015835298225284,5.402821898314869e-06,-0.00024014855443965644
0.00046737893717363477,6.540928734466434e-05,-0.00024703488452360034
0.0003068817313760519,5.903276542085223e-05,-0.0002091182250296697
0.00019869141397066414,-1.142706605605781e-05,-0.00013909113476984203
0.00020799637422896922,-9.384730947203934e-05,-4.211185660096817e-05
0.00022645291755907238,-0.00012077105202479288,7.65088334446773e-05
0.00022026132501196116,-9.41943289944902e-05,0.00017845089314505458
0.0002206988719990477,-5.1654646085808054e-05,0.0002376380580244586
0.0002115170209435746,-1.6913963918341324e-05,0.0002524860028643161
0.00017024032422341406,9.989942554966547e-06,0.00021294906036928296
0.00011249877570662647,2.9967728551127948e-05,0.00013209697499405593
7.864766666898504e-05,3.121433837804943e-05,5.093650543130934e-05
6.285264680627733e-05,3.7102777241670992e-06,5.091880666441284e-06
1.1569051821425091e-05,-3.405475217732601e-05,-5.586101906374097e-06
-7.842913328204304e-05,-4.03461599489674e-05,5.042147108724748e-07
-0.0001310846710111946,1.5781590263941325e-05,9.69020402408205e-06
-0.00010182571713812649,0.00012209740816615522,1.484922267991351e-05
-6.196771573740989e-05,0.0001902838994283229,1.3444694559439085e-05
-7.589560118503869e-05,0.00015812402125447989,7.483296030841302e-06
-0.00017701317847240716,7.923070370452479e-05,3.720066388268606e-08
-0.00037409603828564286,3.308721352368593e-05,-6.184585345181404e-06
-0.0005109176854602993,3.017439848918002e-05,-1.3614539966511074e-05
-0.0004045770619995892,3.5866425605490804e-05,-3.0121658710413612e-05
-0.00017558761464897543,3.476567871985026e-05,-5.0901064241770655e-05
-8.639935549581423e-05,4.692769289249554e-05,-5.998939377604984e-05
-2.287339384565712e-06,6.894654507050291e-05,-5.9355603298172355e-05
0.00029990094481036067,4.465925303520635e-05,-6.054430559743196e-05
0.0005929149920120835,-3.463226312305778e-05,-6.32428636890836e-05
0.0006802382413297892,-9.927229984896258e-05,-6.34310781606473e-05
0.0006050433148629963,-0.00011977460962953046,-5.4654381528962404e-05
0.0004283545713406056,-0.00012581540795508772,-4.202751733828336e-05
0.00014138052938506007,-0.00014055082283448428,-2.982227670145221e-05
-0.00017495593056082726,-0.00013648606545757502,-2.3928461814648472e-05
-0.000409282511100173,-8.606532355770469e-05,-3.0378425435628742e-05
-0.0004898711922578514,3.916989953722805e-06,-4.14970018027816e-05
-0.00040260955574922264,9.242925443686545e-05,-4.5906090235803276e-05
-0.00021347701840568334,0.00014435284538194537,-4.062404332216829e-05
-2.4671840947121382e-05,0.00015823506691958755,-3.4651664464036e-05
8.830650040181354e-05,0.00015030628128442913,-3.542554986779578e-05
0.0001594412897247821,0.00013621085963677615,-3.805986125371419e-05
0.00024376857618335634,0.00012345070717856288,-3.35475015162956e-05
0.0003248433058615774,0.00011108674516435713,-2.2571703084395267e-05
0.00032617931719869375,9.467883501201868e-05,-1.4128057955531403e-05
0.00024754181504249573,7.100749644450843e-05,-1.3719029993808363e-05
0.000130579894175753,4.169885505689308e-05,-2.0020059309899807e-05
-1.885381834654254e-06,7.169206946855411e-05,-2.9193210139055736e-05
-0.00012568426609504968,0.00016634904022794217,-3.362679490237497e-05
-0.00018675847968552262,0.00018421438289806247,-2.99119419651106e-05
-0.00019901199266314507,7.305571489268914e-05,-2.5196040951414034e-05
-0.00020100690016988665,-6.0489357565529644e-05,-2.7657069949782453e-05
-0.0002132794470526278,-0.0001256491814274341,-4.043129592901096e-05
-0.0002683972124941647,-0.00010743768507381901,-6.39989084447734e-05
-0.0004080088983755559,-7.134058978408575e-05,-8.855848864186555e-05
-0.0005854262271896005,-7.593010377604514e-05,-0.00010506000398891047
-0.000728392624296248,-0.00010993247997248545,-0.00010659903637133539
-0.0007634584908373654,-0.00013161312381271273,-9.164914808934554e-05
-0.0006052036769688129,-0.0001190909679280594,-7.10447202436626e-05
-0.0002478591341059655,-7.318427378777415e-05,-5.333052104106173e-05
0.00019054677977692336,7.445263690897264e-06,-3.801293860306032e-05
0.0005476637161336839,0.00011110813647974283,-1.325870744040003e-05
0.0007721609435975552,0.00019341186271049082,2.7638494429993443e-05
0.000844272319227457,0.0002138944255420938,6.660582585027441e-05
0.0007439627079293132,0.00018735344929154962,7.514735625591129e-05
0.0005200051818974316,0.0001479158381698653,5.130654972163029e-05
0.00023825503012631088,9.874325769487768e-05,1.3728234989685006e-05
-0.00011900808021891862,2.2516238459502347e-05,-2.095680065394845e-05
-0.0005199637380428612,-6.645866233156994e-05,-4.4976874050917104e-05
-0.0007701375288888812,-0.00013439175381790847,-5.857178257429041e-05
-0.0007430129335261881,-0.00017420768563169986,-6.252203456824645e-05
-0.0005436226492747664,-0.00019596764468587935,-5.699516987078823e-05
-0.0002920825791079551,-0.0001936507469508797,-4.241972419549711e-05
4.2444416976650245e-06,-0.00014994146476965398,-2.473881067999173e-05
0.00036437317612580955,-6.596952152904123e-05,-1.2362058441794943e-05
0.0007347056525759399,1.933761996042449e-05,-6.956964625715045e-06
0.0009670444414950907,5.781209983979352e-05,-3.5294026474730344e-06
0.0009639088530093431,4.341519525041804e-05,-5.235051048657624e-06
0.0007372259278781712,1.6082874935818836e-05,-1.920725298987236e-05
0.0003366630699019879,1.8729887187873828e-06,-3.7975503801135346e-05
-2.772642437776085e-05,-1.2994613825867418e-05,-4.867739335168153e-05
-0.0001222283171955496,-1.0996082892233972e-05,-4.636196536011994e-05
2.467145532136783e-05,4.9722766561899334e-05,-3.4008771763183177e-05
0.00021461211144924164,0.00011674677080009133,-2.404973747616168e-05
0.000383635371690616,0.00011293591524008662,-2.4318534997291863e-05
0.0005372745217755437,5.049203537055291e-05,-2.9883094612159766e-05
0.0006055707344785333,-2.0116156520089135e-05,-3.572669083951041e-05
0.0006027767085470259,-5.2299295930424705e-05,-3.6105335311731324e-05
0.0005335882888175547,-4.223622818244621e-05,-3.679557630675845e-05
0.0003468279028311372,-1.3218166714068502e-05,-4.28924904554151e-05
5.2774350479012355e-05,1.3346790183277335e-05,-4.11451947002206e-05
-0.00020916156063321978,3.7682744732592255e-05,-1.9139655705657788e-05
-0.00032676252885721624,6.606464012293145e-05,1.8099262888426892e-05
-0.0003317953087389469,9.788168244995177e-05,4.488415288506076e-05
-0.00028571172151714563,0.00012767032603733242,4.271330908522941e-05
-0.0001589881139807403,0.00014396841288544238,1.6140964362421073e-05
4.2470328480703756e-05,0.000141544544021599,-1.5657811673008837e-05
0.00015856389654800296,0.00012057751882821321,-4.043459557578899e-05
7.457182073267177e-05,7.592549809487537e-05,-5.5822456488385797e-05
-9.655483881942928e-05,-8.485279977321625e-06,-6.323932757368311e-05
-0.0001239111297763884,-0.00012287103163544089,-6.518067675642669e-05
8.266953227575868e-05,-0.00022696091036777943,-6.072102769394405e-05
0.0004525368276517838,-0.00026848181732930243,-4.4242580770514905e-05
0.0007900017080828547,-0.00021358428057283163,-7.173891390266363e-06
0.0008733328431844711,-9.641687938710675e-05,4.219854235998355e-05
0.0006667941343039274,9.132657396548893e-06,7.794349221512675e-05
0.0002605177287478,8.403212268603966e-05,7.547825225628912e-05
-9.663634409662336e-05,0.00011223569890717044,3.50268128386233e-05
-0.00026008905842900276,9.869979840004817e-05,-8.167109626810998e-06
-0.00036001804983243346,0.00010263270087307319,-3.271074092481285e-05
-0.00046047443174757063,0.000130593849462457,-4.299969441490248e-05
-0.0005496918456628919,7.270836067618802e-05,-5.2478775614872575e-05
-0.0006387124303728342,-6.609018601011485e-05,-6.899780419189483e-05
-0.0007650252664461732,-0.00011953929788433015,-8.608937059761956e-05
-0.0007834972930140793,-4.9232614401262254e-05,-0.00010141405800823122
-0.0005939836264587939,5.943910582573153e-05,-0.00010863266652449965
-0.00031715098884887993,0.00010354615369578823,-0.00010072801524074748
-9.50791290961206e-05,7.297765841940418e-05,-7.709389319643378e-05
9.40741811064072e-05,3.020880467374809e-05,-6.189598207129166e-05
0.0002658251323737204,2.4782313630566932e-05,-7.620495307492092e-05
0.0003552077105268836,4.55648623756133e-05,-0.0001082748276530765
0.0003498171572573483,5.188253635424189e-05,-0.00013082682562526315
0.00028403251781128347,3.1898704037303105e-05,-0.00013488980766851455
0.0001946678530657664,3.64587481271883e-06,-0.00012774349306710064
0.00010272982763126493,-1.0617557563818991e-05,-0.00011122616706416011
5.629516454064287e-05,-1.071722545020748e-05,-8.637804421596229e-05
5.996930121909827e-05,-7.090277449606219e-06,-4.1781146137509495e-05
8.729325054446235e-05,-1.0693065632949583e-05,5.4795717005617917e-05
0.00010126997221959755,-1.7052840121323243e-05,0.00018244056263938546
9.752126061357558e-05,-1.6778254575910978e-05,0.0002427711442578584
7.147482392610982e-05,-4.338912276580231e-06,0.00019162414537277073
3.446216942393221e-05,7.412601917167194e-06,9.13297917577438e-05
-3.708163421833888e-05,1.422380591975525e-05,2.5808509235503152e-05
-0.00014180532889440656,1.9211478502256796e-05,1.6636378859402612e-05
-0.00021168730745557696,1.9476279703667387e-05,2.6793435608851723e-05
-0.00023317850718740374,2.1198735339567065e-05,2.2745583919459023e-05
-0.00024058070266619325,3.7589441490126774e-05,4.438486030267086e-06
-0.0002534331870265305,4.6540822950191796e-05,-9.167672942567151e-06
-0.0002078780671581626,4.021415224997327e-05,-9.859498277364764e-06
-1.7009078874252737e-05,3.366058808751404e-05,-9.97989991446957e-06
0.00010844208009075373,2.7664238587021828e-05,-1.310567677137442e-05
-4.979828736395575e-05,1.1000892300216947e-05,-8.457541298412252e-06
-0.0004523926763795316,-3.464736073510721e-05,5.897277333133388e-06
-0.0008381216903217137,-0.0001089131401386112,1.2744077139359433e-05
-0.0008932428318075836,-0.00017559205298312008,1.5425221135956235e-06
-0.0005623571341857314,-0.00017747659876476973,-1.6372898244298995e-05
-1.2853697626269422e-05,-8.505467849317938e-05,-2.5205768906744197e-05
0.0004901769571006298,5.9364523622207344e-05,-2.9933880796306767e-05
0.0007868318352848291,0.00016357333515770733,-4.3268293666187674e-05
0.0009345113066956401,0.00018867522885557264,-6.0271260736044496e-05
0.0010114922188222408,0.0001748667418723926,-6.738465890521184e-05
0.0009409813792444766,0.0001577353832544759,-6.54315808787942e-05
0.0007039695628918707,0.00012063463509548455,-6.420884164981544e-05
0.00041978550143539906,5.780892388429493e-05,-6.322735862340778e-05
0.00020550868066493422,2.9257553251227364e-06,-5.7740220654523e-05
8.457270450890064e-05,-5.469112693390343e-06,-4.9408663471695036e-05
3.204399399692193e-05,2.7062726076110266e-05,-4.58099675597623e-05
2.91592823487008e-05,6.283193943090737e-05,-4.85806267533917e-05
6.385517190210521e-05,8.468826854368672e-05,-5.117483306094073e-05
9.957719885278493e-05,9.356122609460726e-05,-4.059893763042055e-05
0.00010321254376322031,7.077434565871954e-05,-1.6576897905906662e-05
8.441439422313124e-05,8.14186114439508e-06,9.405715104549017e-07
6.648645648965612e-05,-5.559449709835462e-05,1.641587368794717e-05
2.4059425413724966e-05,-8.555871318094432e-05,2.7747924832510762e-05
-0.00010470387496752664,-7.199415267677978e-05,1.3980071344121825e-05
-0.0003149567637592554,-1.86889483302366e-05,-1.2799836440535728e-05
-0.0005337213515304029,2.414846130704973e-05,-3.5663753806147724e-05
-0.0007858193130232394,1.0550146726018284e-05,-4.582960173138417e-05
-0.0010141066741198301,-2.143454912584275e-05,-4.83008952869568e-05
-0.000987114617601037,-1.5802208508830518e-05,-4.734424874186516e-05
-0.0006345395231619477,1.784963569662068e-05,-4.2274277802789584e-05
-0.000143974888487719,3.590390770114027e-05,-3.184561137459241e-05
0.00020685954950749874,1.9135282855131663e-05,-2.0783485524589196e-05
0.0003428257186897099,-1.8118033040082082e-05,-1.5253845049301162e-05
0.0004720676224678755,-4.526359771261923e-05,-1.4910215213603806e-05
0.0007297374540939927,-4.936567347613163e-05,-1.7631844457355328e-05
0.0009495086269453168,-4.0504739445168525e-05,-2.308560760866385e-05
0.0009701973758637905,-3.7860270822420716e-05,-3.098841625615023e-05
0.0007989431614987552,-4.622268897946924e-05,-3.791846029344015e-05
0.0005056828958913684,-4.390028698253445e-05,-4.45494988525752e-05
0.00024050431966315955,-1.5870125935180113e-05,-5.153919119038619e-05
0.00017067533917725086,6.17281011727755e-06,-5.4768748668720946e-05
0.00026234117103740573,8.31878696772037e-06,-5.326732207322493e-05
0.0003327083250042051,3.6208570236340165e-05,-5.136081381351687e-05
0.00028024916537106037,6.442020821850747e-05,-4.610497489920817e-05
0.0001547366555314511,3.366130840731785e-05,-3.853388989227824e-05
5.872799374628812e-05,-2.9213641028036363e-05,-3.493215990602039e-05
1.788641748134978e-05,-6.808029138483107e-05,-3.780467886826955e-05
-6.3375050558533985e-06,-4.791110768564977e-05,-3.584317528293468e-05
-1.644379153731279e-05,-1.347523493677727e-06,-2.552678415668197e-05
9.461948138778098e-06,2.3795671950210817e-05,-1.6271809727186337e-05
3.31768169417046e-05,2.714991569519043e-05,-1.4292015293904115e-05
2.056728226307314e-05,3.310105239506811e-05,-1.5036584045446943e-05
-4.050943607580848e-05,5.6007716921158135e-05,-1.7308377209701575e-05
-0.00014508847380056977,8.982316649053246e-05,-2.2289599655778147e-05
-0.00022132544836495072,0.00012519839219748974,-2.8161401132820174e-05
-0.0002151850494556129,0.00014450990420300514,-3.1252089684130624e-05
-0.00016862004122231156,0.00013504433445632458,-3.6922083381796256e-05
-0.0001571506290929392,9.306015999754891e-05,-5.448860247270204e-05
-0.00017845205729827285,3.1287552701542154e-05,-7.664704753551632e-05
-0.00017400734941475093,-4.2937892430927604e-05,-8.699177851667628e-05
-0.00012084812624379992,-0.00011492415069369599,-8.161830919561908e-05
-2.9855398679501377e-05,-0.00015709975559730083,-6.772394408471882e-05
4.704844468506053e-05,-0.00015087585779838264,-4.931975490762852e-05
5.278773096506484e-05,-0.00011059355165343732,-2.98182185360929e-05
-1.9979726857854985e-05,-6.710597517667338e-05,-1.1892335351149086e-05
-0.00014090909098740667,-3.793807627516799e-05,5.875021997781005e-07
-0.00029637536499649286,-2.332165058760438e-05,1.672580219747033e-05
-0.0004377376171760261,-1.233887451235205e-05,4.884576264885254e-05
-0.0005017339717596769,1.6988585684885038e-06,7.625199214089662e-05
-0.0004982379614375532,1.6959354979917407e-05,6.588177348021418e-05
-0.0004003111971542239,2.342216612305492e-05,2.2643265765509568e-05
-0.00023285431961994618,1.806726140785031e-05,-2.151443732145708e-05
-0.00013231646153144538,8.813725798972882e-06,-4.267124677426182e-05
-5.4662799811922014e-05,-8.038428859435953e-06,-3.953472332796082e-05
0.00013424005010165274,-3.453883618931286e-05,-2.6421499569551088e-05
0.0003065906639676541,-3.3279098715865985e-05,-1.2622915164683945e-05
0.000349473295500502,3.916172499884851e-05,5.261469141260022e-06
0.0003735319187399,0.00013106086407788098,2.1846641175216064e-05
0.0003839349083136767,0.00013788254000246525,2.543761547713075e-05
0.0002535955572966486,9.755890641827136e-05,8.292303391499445e-06
1.2977069445696543e-06,8.420234371442348e-05,-2.043174026766792e-05
-0.00024249743728432804,8.05107774795033e-05,-4.438542964635417e-05
-0.00037743765278719366,6.477699935203418e-05,-5.381974915508181e-05
-0.00030115360277704895,4.129122680751607e-05,-5.442792098619975e-05
-7.64739525038749e-06,5.707392119802535e-06,-5.683847120963037e-05
0.00038920529186725616,-3.658200876088813e-05,-6.005150135024451e-05
0.0007717536063864827,-6.641849176958203e-05,-5.6625085562700406e-05
0.001007596030831337,-8.014500053832307e-05,-4.43203971371986e-05
0.0009668503189459443,-8.385293767787516e-05,-2.8779237254639156e-05
0.0007074832683429122,-7.486062531825155e-05,-1.821297701098956e-05
0.0004542991810012609,-4.214190994389355e-05,-1.8674470993573777e-05
0.00032082037068903446,1.028426686389139e-05,-2.569574826338794e-05
0.00024234822194557637,6.108231900725514e-05,-3.119584289379418e-05
0.00017657452553976327,7.877925236243755e-05,-3.0815172067377716e-05
0.00016148152644746006,5.2567589591490105e-05,-2.5432838810957037e-05
0.00019760688883252442,3.2066004678199533e-06,-1.9537887055776082e-05
0.00023816482280381024,-3.5015586036024615e-05,-1.923550917126704e-05
0.00022351798543240875,-4.2849329474847764e-05,-1.9564877220545895e-05
0.00011746367817977443,-1.0080003448820207e-05,-1.1845893823192455e-05
-4.558316868497059e-05,5.1053673814749345e-05,2.674453980944236e-06
-0.00023617253464180976,0.00011115946836071089,1.2031456208205782e-05
-0.0004519870853982866,0.0001326950005022809,5.558295924856793e-06
-0.0005796553450636566,0.00010943774395855144,-8.724979124963284e-06
-0.0005117071559652686,8.136087853927165e-05,-1.6176572898984887e-05
-0.0003329655737616122,4.7151512262644246e-05,-2.3861826775828376e-05
-0.00019866821821779013,-1.7173946389448247e-06,-3.778351310756989e-05
-0.00015990006795618683,-3.0101817173999734e-05,-5.3805342759005725e-05
-0.00012930175580549985,-6.278835826378781e-06,-5.8150897530140355e-05
3.357967943884432e-05,5.137065454619005e-05,-4.286907642381266e-05
0.00022726081078872085,0.00010354226105846465,-1.1410530532884877e-05
0.00017615716205909848,0.00013533707533497363,1.9205728676752187e-05
-0.0001929199497681111,0.0001507885317550972,2.7471471184981056e-05
-0.0006084477645345032,0.0001450524723622948,1.4882513823977206e-05
-0.0007659039692953229,9.706248965812847e-05,-2.0905529254378052e-06
-0.0006673088646493852,6.159442591524567e-07,-1.601354051672388e-05
-0.0004214400833006948,-0.00010320128785679117,-3.265114355599508e-05
-2.699019205465447e-05,-0.00016005986253730953,-5.092953142593615e-05
0.0004669347545132041,-0.00015839861589483917,-6.032315286574885e-05
0.0008392341551370919,-0.00012140570470364764,-5.5060685554053634e-05
0.0009397370740771294,-8.344613888766617e-05,-5.018027513870038e-05
0.00078355468576774,-6.669389404123649e-05,-5.416230851551518e-05
0.000513153790961951,-5.9182340919505805e-05,-5.617953502223827e-05
0.0002727493119891733,-3.3585780329303816e-05,-5.21224137628451e-05
9.406703611603007e-05,3.919215942005394e-06,-4.814300700672902e-05
-6.311557808658108e-05,2.287569259351585e-05,-4.7403656935784966e-05
-0.00020519751706160605,1.5077946954988874e-05,-5.6185446737799793e-05
-0.00019782301387749612,-1.713346250653558e-06,-7.592094334540889e-05
7.1938102337298915e-06,-4.547966818790883e-05,-9.591219713911414e-05
0.00018108096264768392,-0.00011275493307039142,-9.824265725910664e-05
0.00021655746968463063,-0.0001371995167573914,-8.222538599511608e-05
0.00017064162238966674,-0.00010011539416154847,-5.580765719059855e-05
-1.8747711010291823e-06,-4.475469177123159e-05,3.5150895882907207e-07
-0.00023358690668828785,-9.246333547707764e-07,6.324247078737244e-05
-0.00038252471131272614,2.8302303689997643e-05,7.43072887416929e-05
-0.00039234236464835703,3.858763739117421e-05,4.373326737550087e-05
-0.0002968077315017581,3.078478039242327e-05,1.9470100596663542e-05
-0.0001648866746108979,2.560292159614619e-05,2.443646553729195e-05
-3.944633135688491e-05,5.539300400414504e-05,4.0271108446177095e-05
6.91791283315979e-05,0.00011541018466232345,4.547540447674692e-05
0.00015716758207418025,0.00017124737496487796,3.9485916204284877e-05
0.00017846592527348548,0.00019550758588593453,3.572700370568782e-05
0.00011828643619082868,0.00019278527179267257,4.587125658872537e-05
5.13986888108775e-05,0.00018872976943384856,6.088442023610696e-05
8.489732863381505e-06,0.0001918602647492662,5.8529658417683095e-05
-0.00014786035171709955,0.00018101475143339485,3.241254307795316e-05
-0.0004634725919459015,0.00012459357094485313,-9.101125328925264e-07
-0.0007067176047712564,1.2607531971298158e-05,-3.0823055567452684e-05
-0.0006503036711364985,-0.00011596593685681,-6.046097041689791e-05
-0.00033378592343069613,-0.00019981680088676512,-8.99798542377539e-05
3.698449654621072e-05,-0.00022111328144092113,-0.00010357057908549905
0.0003456874983385205,-0.00018740496307145804,-9.19965241337195e-05
0.0006383432191796601,-0.00011069758329540491,-6.331005715765059e-05
0.0008482472621835768,-1.130524105974473e-05,-2.9827935577486642e-05
0.0008633281104266644,9.297287761000916e-05,-1.5422277783727623e-06
0.0006690811133012176,0.00021415911032818258,1.2230219908815343e-05
0.00032573824864812195,0.0002877627848647535,7.94774587120628e-06
1.0971481060551014e-05,0.00025289892801083624,-6.673670213785954e-06
-0.00010340775043005124,0.00018675786850508302,-1.9841487301164307e-05
-7.150529199861921e-06,0.00015103042824193835,-2.6632660592440516e-05
0.00014329350960906595,0.00010666900197975338,-3.1207619031192735e-05
0.0002787933044601232,1.1200978406122886e-05,-4.2973693780368194e-05
0.00037540416815318167,-9.262546518584713e-05,-5.144493843545206e-05
0.0003567657549865544,-0.0001716817932901904,-5.011629036744125e-05
0.00019519429770298302,-0.00018522854952607304,-4.475704190554097e-05
1.725751644698903e-05,-0.00011530288611538708,-4.258185799699277e-05
-5.8318317314842716e-05,-1.726722257444635e-05,-4.661671118810773e-05
-8.830387378111482e-05,3.657072738860734e-05,-5.3726562327938154e-05
-0.000198258989257738,3.585887316148728e-05,-5.550568312173709e-05
-0.00039818434743210673,2.6625211830832995e-05,-4.471783176995814e-05
-0.0005611450760625303,4.462122524273582e-05,-1.999210326175671e-05
-0.0006066087516956031,8.929589239414781e-05,8.115859600366093e-06
-0.000608640315476805,9.590315312379971e-05,1.4981154890847392e-05
-0.000607154390309006,6.52761991659645e-06,-9.416004104423337e-06
-0.0004793949774466455,-0.00012534619600046426,-4.683906081481837e-05
-0.0001916759938467294,-0.00017759014735929668,-6.158479664009064e-05
0.00014938287495169789,-0.00012102603068342432,-4.555999475996941e-05
0.00037571415305137634,-9.564151696395129e-06,-2.6029731088783592e-05
0.0003132176643703133,9.865475294645876e-05,-2.9680402803933248e-05
0.0001837321324273944,0.00016164116095751524,-5.3556588682113215e-05
0.0002723407233133912,0.00013257664977572858,-7.029776315903291e-05
0.00030334992334246635,3.6611766063288087e-07,-6.973403651500121e-05
7.099594222381711e-05,-0.0001432061253581196,-6.210004357853904e-05
-8.1604317529127e-05,-0.000184619304491207,-5.112675717100501e-05
9.066017082659528e-05,-0.00018211094720754772,-3.724536145455204e-05
0.0003814053488895297,-0.00020242933533154428,-1.8145570720662363e-05
0.0005710007390007377,-0.0002016326761804521,6.566341653524432e-06
0.0005938857793807983,-0.00016358093125745654,2.2051490304875188e-05
0.0005974320229142904,-0.00010054773156298324,1.2237593182362616e-05
0.0006348062306642532,-3.142885907436721e-05,-9.843062798609026e-06
0.0005535566597245634,2.9187724067014642e-05,-2.7670064810081385e-05
0.00030739858630113304,6.565789226442575e-05,-3.6622142943087965e-05
7.714664388913661e-05,8.253403211710975e-05,-4.430248372955248e-05
3.8073125324444845e-05,8.411044836975634e-05,-5.45609145774506e-05
0.00012818073446396738,6.774403300369158e-05,-6.545395444845781e-05
0.00018364891002420336,2.5101040591835044e-05,-7.140913658076897e-05
0.00012028618948534131,-3.00562460324727e-05,-7.258888945216313e-05
-1.583852463227231e-05,-6.355070217978209e-05,-7.305142207769677e-05
-0.0001764591143000871,-4.871870260103606e-05,-6.582557398360223e-05
-0.00037136400351300836,5.766367848991649e-06,-3.7065910873934627e-05
-0.0005864824051968753,6.301169923972338e-05,1.0967284651997034e-05
-0.000705327489413321,9.571333066560328e-05,4.52695858257357e-05
-0.0006821293500252068,9.90976404864341e-05,3.6353310861159116e-05
-0.0005538534605875611,9.234280150849372e-05,-2.0637160105252406e-06
-0.0003118657332379371,9.421846334589645e-05,-2.5273533537983894e-05
1.77187812369084e-05,9.081912867259234e-05,-2.3555685402243398e-05
0.00027151155518367887,6.312976620392874e-05,-1.6159525330294855e-05
0.0003623592492658645,3.135101360385306e-05,-1.465013156121131e-05
0.0002993921807501465,2.8928712708875537e-05,-1.705370596027933e-05
0.00020142743596807122,6.240214133867994e-05,-1.693959166004788e-05
0.0002562556474003941,8.389542927034199e-05,-1.5758801964693703e-05
0.00033201431506313384,6.901465530972928e-05,-1.9875606085406616e-05
0.0002598128921817988,2.604569453978911e-05,-2.9100599931553006e-05
6.96249189786613e-05,-2.976366704388056e-05,-3.7540467019425705e-05
-0.00014092466153670102,-8.021151734283194e-05,-3.7089394027134404e-05
-0.0001298146235058084,-0.00012107648944947869,-3.20504441333469e-05
8.825364784570411e-05,-0.000140377291245386,-2.1668090994353406e-05
0.0002130176726495847,-0.0001059894057107158,-1.4024399206391536e-05
0.00017238770669791847,-2.0217206838424318e-05,-2.289812982780859e-05
0.0001831650297390297,5.292533023748547e-05,-4.4032054574927315e-05
0.0003087605582550168,0.00010747477790573612,-6.309390300884843e-05
0.0003548810782376677,0.00017857621423900127,-6.95814669597894e-05
0.0001994795020436868,0.0002483603311702609,-5.8615296438802034e-05
-4.476493995753117e-05,0.00024151281104423106,-3.94396556657739e-05
-0.00020381654030643404,0.00010163766273763031,-3.048578219022602e-05
-0.0002145228791050613,-0.00010848851525224745,-3.705751441884786e-05
-9.194995800498873e-05,-0.00023642675660084933,-4.2816853238036856e-05
9.276904165744781e-05,-0.00021714290778618306,-2.335293720534537e-05
0.0002421348908683285,-0.00012435675307642668,1.8826453015208244e-05
0.00027414498617872596,-2.92780914605828e-05,5.299109034240246e-05
0.00020116094674449414,5.6205422879429534e-05,5.9061014326289296e-05
8.386337867705151e-05,0.00013056672469247133,4.498202179092914e-05
-9.014837814902421e-06,0.00017601919535081834,2.3349195544142276e-05
-2.601418600534089e-05,0.00018793936760630459,4.6222999117162544e-06
2.9711853130720556e-05,0.00018528549117036164,-5.522780611499911e-06
6.429445784306154e-05,0.00018719612853601575,-4.93169227411272e-06
-2.4532189854653552e-05,0.00016851919644977897,-3.0635953862656606e-06
-0.0002590293297544122,9.50697431107983e-05,-1.5154719221754931e-05
-0.0004976355703547597,3.249571454944089e-05,-4.07468578487169e-05
-0.000599684368353337,2.4274317183881067e-05,-5.927405436523259e-05
-0.0006005900795571506,1.5546595022897236e-05,-6.550538091687486e-05
-0.0005947054596617818,-1.6188472727662884e-05,-6.398199184332043e-05
-0.0006735588540323079,-4.3507752707228065e-05,-5.9786612837342545e-05
-0.0007611818145960569,-4.411813642946072e-05,-5.8295878261560574e-05
-0.0005512317293323576,-4.423866266733967e-05,-6.59694560454227e-05
-1.5694511603214778e-05,-6.069207302061841e-05,-8.22292931843549e-05
0.0005190383526496589,-8.342977525899187e-05,-9.055022383108735e-05
0.000814796076156199,-9.278587822336704e-05,-7.415064465021715e-05
0.0008021288085728884,-8.704460924491286e-05,-2.5540246497257613e-05
0.000629662477876991,-7.903590449132025e-05,5.307939136400819e-05
0.0005341363721527159,-6.323990237433463e-05,0.00012424385931808501
0.0005220830789767206,-1.5597886886098422e-05,0.00013147154822945595
0.0004496401525102556,5.7555356761440635e-05,7.50800027162768e-05
0.00032954534981399775,9.003702871268615e-05,7.0469109232362825e-06
0.00024986694916151464,3.9070757338777184e-05,-3.1499479518970475e-05
0.00020136675448156893,-4.967549830325879e-05,-4.272683145245537e-05
0.00016065617091953754,-9.856364340521395e-05,-4.567906944430433e-05
0.0001758682046784088,-8.598516433266923e-05,-4.881338827544823e-05
0.0002567320188973099,-3.163868677802384e-05,-4.818289744434878e-05
0.0002936944074463099,2.793117891997099e-05,-4.4227046601008624e-05
0.00023796824098099023,6.341996049741283e-05,-3.955690408474766e-05
0.00014472032489720732,6.760658288840204e-05,-3.8728634535800666e-05
2.956661774078384e-05,5.3951596783008426e-05,-4.348961738287471e-05
-0.00011665294732665643,4.3845993786817417e-05,-4.754899782710709e-05
-0.00016040944319684058,5.264790524961427e-05,-4.5285119995241985e-05
-3.223506428184919e-05,5.0431011914042756e-05,-4.342008469393477e-05
0.0001011011190712452,1.2727397006528918e-05,-5.334249362931587e-05
0.00013068206317257136,-3.8714024412911385e-05,-6.556113658007234e-05
9.134288120549172e-05,-7.322034798562527e-05,-6.308441516011953e-05
4.0299255488207564e-05,-5.741795030189678e-05,-4.043327135150321e-05
-5.940262781223282e-05,1.780158891051542e-05,-2.697227273529279e-06
-0.0002465537691023201,0.00010371959069743752,3.9424012356903404e-05
-0.0004497507761698216,0.00012157106539234519,6.734145426889881e-05
-0.0005793028394691646,5.2257379138609394e-05,6.59157449263148e-05
-0.0006064282497391105,-4.516871558735147e-05,3.9404210838256404e-05
-0.0005713824648410082,-0.00010632973862811923,7.157977961469442e-06
-0.0005154650425538421,-0.0001084813557099551,-4.197914222459076e-06
-0.00033224080107174814,-6.612415018025786e-05,1.0243060387438163e-05
4.510891085374169e-05,4.750713287648978e-06,2.5899213142110966e-05
0.0004346231580711901,8.381222141906619e-05,2.1396306692622602e-05
0.0006152077112346888,0.0001205530425067991,2.636982799231191e-06
0.0005621505551971495,7.034122245386243e-05,-1.5673025700380094e-05
0.00038714244146831334,-4.0968912799144164e-05,-2.762530857580714e-05
0.00019265845185145736,-0.00013583307736553252,-3.131925404886715e-05
-1.1859666301461402e-05,-0.0001551084715174511,-2.883297929656692e-05
-0.0002811415179166943,-7.651866326341406e-05,-2.945401683973614e-05
-0.0004526790580712259,7.615044887643307e-05,-3.891357482643798e-05
-0.00027376069920137525,0.00018509497749619186,-5.076819070382044e-05
0.00014241659664548934,0.0001459366176277399,-5.661294926539995e-05
0.0004150869499426335,4.257747423253022e-05,-5.4653115512337536e-05
0.00037457075086422265,-1.254782637261087e-05,-4.927158443024382e-05
0.0001614217326277867,-1.5976696886355057e-05,-4.596021244651638e-05
-6.461227894760668e-05,-1.6860407470176142e-07,-4.717299816547893e-05
-0.0002807943965308368,2.059345570160076e-05,-4.508058191277087e-05
-0.00045418995432555676,1.7736159861669876e-05,-4.007443931186572e-05
-0.0005030319443903863,-1.2908057215099689e-05,-4.181479016551748e-05
-0.00039767217822372913,2.2352753603627207e-06,-5.2022507588844746e-05
-0.00017412220768164843,7.057707261992618e-05,-6.400704296538606e-05
0.00013222111738286912,0.00011108039325335994,-7.290053326869383e-05
0.0004451234999578446,8.236966823460534e-05,-7.407166413031518e-05
0.0006421817815862596,2.00752019736683e-05,-6.94345508236438e-05
0.0006484328769147396,-2.8448224838939495e-05,-6.390788621501997e-05
0.0004830782418139279,-4.667675602831878e-05,-5.702591806766577e-05
0.00025927877868525684,-3.840721910819411e-05,-4.619669198291376e-05
9.802811109693721e-05,-8.472320587316062e-06,-2.996111652464606e-05
3.490099334158003e-05,3.105639189016074e-05,-9.419767593499273e-06
2.856138780771289e-05,5.2499541197903454e-05,1.1730824553524144e-05
2.3489550585509278e-05,4.487108890316449e-05,2.278802276123315e-05
-3.601046773837879e-05,2.1564317648881115e-05,1.873284054454416e-05
-0.00017953987116925418,-1.127915038523497e-05,4.676522621593904e-06
-0.00033883037394843996,-5.148381751496345e-05,-1.3083771591482218e-05
-0.00038418176700361073,-7.173507765401155e-05,-2.8730615667882375e-05
-0.00030724244425073266,-4.5007345761405304e-05,-3.784870568779297e-05
-0.00019126311235595495,1.9560171494958922e-05,-4.663577055907808e-05
-3.914107946911827e-05,8.035820064833388e-05,-6.516194844152778e-05
0.00021197581372689456,0.00011370005086064339,-9.076123387785628e-05
0.0005119956331327558,0.00013479233894031495,-9.801369742490351e-05
0.0006596777238883078,0.00016890911501832306,-5.626308484352194e-05
0.0005656525027006865,0.00018974611884914339,1.2444908861652948e-05
0.00035820179618895054,0.00014326458040159196,6.152309651952237e-05
0.00020120153203606606,3.0584145861212164e-05,7.445837400155142e-05
0.00015766722208354622,-6.997671152930707e-05,5.37161722604651e-05
0.00013875601871404797,-8.700270700501278e-05,1.1682541298796423e-05
3.032563836313784e-05,-5.307089304551482e-05,-3.74797782569658e-05
-9.343259443994612e-05,-1.971312849491369e-05,-7.500547508243471e-05
-9.575110743753612e-05,6.038562787580304e-06,-9.346179285785183e-05
-2.098747791023925e-05,3.1126146495807916e-05,-9.097663860302418e-05
5.1649362831085455e-06,5.233755655353889e-05,-7.131166057661176e-05
-4.9707228754414245e-05,5.913033601245843e-05,-4.015969898318872e-05
-0.0001266411563847214,4.793053449247964e-05,-1.432071985618677e-05
-0.0001537710049888119,2.175338340748567e-05,-1.1609199646045454e-05
-0.00010364237823523581,-4.048649316246156e-06,-3.024432953679934e-05
5.982929451420205e-06,-5.306766524881823e-06,-5.02761613461189e-05
0.0001424154470441863,1.4817917872278485e-05,-5.4064803407527506e-05
0.00025047778035514057,1.6618780136923306e-05,-4.641684063244611e-05
0.0002782857045531273,-2.9668879506061785e-05,-3.83190308639314e-05
0.00023131098714657128,-0.00010434738214826211,-3.672133243526332e-05
0.0001492080482421443,-0.00016143519314937294,-3.569150067050941e-05
4.404891296871938e-05,-0.00017015900812111795,-2.6135248845093884e-05
-5.11623002239503e-05,-0.00011859178630402312,-1.0808507795445621e-05
-8.430451271124184e-05,-2.219661109847948e-05,-5.673372015735367e-06
-8.951110794441774e-05,6.239889626158401e-05,-2.4048067643889226e-05
-0.00012743641855195165,7.933129381854087e-05,-6.27431072643958e-05
-0.00019941647769883275,2.8915001166751608e-05,-0.00011022141552530229
-0.0002904451102949679,-4.781297320732847e-05,-0.00015253564924933016
-0.00033813505433499813,-9.772460907697678e-05,-0.00015362681006081402
-0.0002962249855045229,-0.00010532799205975607,-0.00011924225691473112
-0.00020859554933849722,-8.516013622283936e-05,-7.942391675896943e-05
-0.00017063747509382665,-3.4825410693883896e-05,-4.347580033936538e-05
-0.00021071966330055147,6.363025750033557e-05,-1.3681333257409278e-05
-0.00024330802261829376,0.00016531151777599007,2.5657192963990383e-05
-0.00022280740085989237,0.00018952784012071788,9.654175664763898e-05
-0.0001158534360001795,0.00013968575512990355,0.00019147805869579315
4.471091597224586e-05,6.327383744064718e-05,0.00024340793606825173
0.00021080403530504555,7.855112926336005e-06,0.00020580926502589136
0.0003967562224715948,-1.1219703083042987e-05,0.00011589632777031511
0.0005695712752640247,-5.659223916154588e-06,3.930251477868296e-05
0.0005727243260480464,6.153012691356707e-06,4.0093254938255996e-06
0.00029315572464838624,1.7901353203342296e-05,-2.660132849996444e-06
-0.00010645628935890272,3.9443249988835305e-05,-1.8157510339733562e-07
-0.0002968229237012565,7.84176227170974e-05,2.044336952167214e-06
-0.00014531065244227648,0.0001249734777957201,-2.5859631591629295e-07
0.00014385244867298752,0.00015376591181848198,-6.774391295039095e-06
0.00036379764787852764,0.00015206557873170823,-1.5479572539334185e-05
0.0005069577018730342,0.00012072510435245931,-2.7599800887401216e-05
0.0006215301109477878,7.283344166353345e-05,-4.3763087887782604e-05
0.0007384296040982008,1.8145618014386855e-05,-5.9706679166993126e-05
0.0007790409727022052,-3.8815585867268965e-05,-6.394446972990409e-05
0.0005751472199335694,-9.34919880819507e-05,-5.032036278862506e-05
0.000220815374632366,-0.0001608651946298778,-2.8007241780869663e-05
-2.7255113309365697e-05,-0.00024962835595943034,-1.3399476301856339e-05
-0.00011275256110820919,-0.00031288660829886794,-1.8565146092441864e-05
-0.00011831350275315344,-0.00028072347049601376,-3.1094074074644595e-05
-9.52092232182622e-05,-0.00019669593893922865,-3.8051610317779705e-05
-8.890764001989737e-05,-0.00012657597835641354,-4.2010397010017186e-05
-0.00010049904813058674,1.795212665456347e-05,-4.5691387640545145e-05
-0.000125348728033714,0.0002172207023249939,-4.829634417546913e-05
-0.00023310956021305174,0.00030755321495234966,-4.8631165554979816e-05
-0.00041921596857719123,0.00025108567206189036,-4.658464604290202e-05
-0.0005731479614041746,0.0001563422119943425,-4.329558942117728e-05
-0.0006192791624926031,0.00010089802526636049,-4.1759856685530394e-05
-0.0005493801436387002,4.563565744319931e-05,-4.1774765122681856e-05
-0.0004380416066851467,-5.484480789164081e-05,-4.219427137286402e-05
-0.0002907301241066307,-0.00016901700291782618,-3.8080957892816514e-05
-3.681856469484046e-05,-0.00022918669856153429,-2.9742939659627154e-05
0.0002820247900672257,-0.00020248073269613087,-2.5944278604583815e-05
0.0005256522563286126,-0.0001117809588322416,-3.528205706970766e-05
0.0006158460746519268,-1.1448832992755342e-05,-5.474574936670251e-05
0.0006019643042236567,6.843022129032761e-05,-6.788240716559812e-05
0.0005428235745057464,0.00013278285041451454,-5.958990004728548e-05
0.0004400770121719688,0.0001862469653133303,-3.7633322790497914e-05
0.00028831177041865885,0.00021389982430264354,-2.7022302674595267e-05
8.857456123223528e-05,0.00019978788623120636,-3.536596705089323e-05
-0.00016958000196609646,0.00013840754400007427,-4.440141128725372e-05
-0.00044340931344777346,7.123377145035192e-05,-3.645774268079549e-05
-0.0006469484069384634,4.097939017810859e-05,-1.802537553885486e-05
-0.0006703393300995231,3.3619278838159516e-05,-4.829310000786791e-06
-0.000593117787502706,2.6657406124286354e-05,-2.72185889116372e-06
-0.0005592783563770354,9.950275853043422e-06,-1.0162561011384241e-05
-0.00039075512904673815,-1.2358495951048099e-05,-1.9324146705912426e-05
5.186257840250619e-05,-2.2894066205481067e-05,-2.555567516537849e-05
0.0005686104414053261,-1.674047416599933e-05,-3.427126648603007e-05
0.000929760280996561,1.2814768979296787e-07,-4.1758055886020884e-05
0.0011888595763593912,1.7645797925069928e-05,-3.973795173806138e-05
0.0014397918712347746,-1.897010861284798e-06,-3.409058626857586e-05
0.001396350096911192,-8.406209235545248e-05,-2.7631076591205783e-05
0.0009352489141747355,-0.00018726724374573678,-1.8202137653133832e-05
0.00038751051761209965,-0.00022839687881059945,-1.5059699762787204e-05
1.1317748430883512e-05,-0.00016406674694735557,-2.281447632412892e-05
-0.00028152382583357394,-3.311733962618746e-05,-3.3457414247095585e-05
-0.0005732749705202878,8.6411033407785e-05,-3.7617708585457876e-05
-0.0007188318413682282,0.00014080162509344518,-3.576549352146685e-05
-0.0006544350762851536,0.00014911680773366243,-3.531852416926995e-05
-0.0005239352467469871,0.00014341335918288678,-3.883683166350238e-05
-0.000447911792434752,0.00011663385521387681,-4.0772909414954484e-05
-0.00040244852425530553,6.733967165928334e-05,-3.7366491596912965e-05
-0.0003549895773176104,2.418609437881969e-05,-3.3003412681864575e-05
-0.0002829963050317019,5.624282948701875e-06,-3.342624404467642e-05
-0.00016764699830673635,-2.173028860852355e-06,-3.743231718544848e-05
-1.5328070730902255e-05,-9.723087714519352e-06,-4.11788969358895e-05
0.00011348646512487903,-9.883368875307497e-06,-4.207376696285792e-05
0.00016836290888022631,-1.8181708583142608e-06,-3.4879238228313625e-05
0.0001657252141740173,1.3331078662304208e-05,-2.4039007257670164e-05
0.0001913909218274057,5.831031739944592e-05,-1.701614928606432e-05
0.0002764405799098313,0.00013021340419072658,-1.4719588762091007e-05
0.00028733458020724356,0.00014861737145110965,-1.7106835002778098e-05
0.0001465771783841774,7.866757368901744e-05,-2.5775243557291105e-05
3.489990922389552e-05,1.3636176845466252e-05,-3.653940075309947e-05
3.533208291628398e-05,6.952711828489555e-06,-3.96123286918737e-05
-1.1721828741428908e-05,3.099676905549131e-05,-3.428621857892722e-05
-0.0001003893485176377,4.4150154280941933e-05,-2.6994932341040112e-05
-5.463120760396123e-05,1.125044309446821e-05,-1.962567876034882e-05
4.360135426395573e-05,-6.274954648688436e-05,-1.3163596122467425e-05
-7.701029971940443e-06,-0.0001393439742969349,-9.973832675314043e-06
-0.0001668070035520941,-0.00018959143199026585,-1.0140294762095436e-05
-0.0003044626791961491,-0.00020430110453162342,-1.2462232916732319e-05
-0.0003952748083975166,-0.0001439178449800238,-1.3224263966549188e-05
-0.00045902165584266186,-2.5760868993529584e-06,-1.1510440344864037e-05
-0.0004127845459152013,0.00012389945914037526,-9.125891665462404e-06
-0.00018789411114994437,0.00014092448691371828,-1.2133173186157364e-05
6.952659168746322e-05,6.462663441197947e-05,-2.012230470427312e-05
0.0001376799918944016,-1.6704234440112486e-05,-2.2776494006393477e-05
3.274938353570178e-05,-4.2744788515847176e-05,-1.5585330402245745e-05
-4.610337418853305e-05,-5.297755706124008e-06,-4.00489352614386e-06
5.6026892707450315e-05,6.751412729499862e-05,7.79007314122282e-06
0.0003375246305949986,9.019665594678372e-05,2.0737039449159056e-05
0.0006231042207218707,-1.9573064491851255e-05,3.079117232118733e-05
0.0007820051396265626,-0.00020099761604797095,3.0145221899147145e-05
0.0008359997300431132,-0.00028544579981826246,1.9739463823498227e-05
0.0007562232203781605,-0.00019267511379439384,1.0662631211744156e-05
0.00047577483928762376,-3.821346035692841e-05,2.4172529720090097e-06
0.00011605949111981317,7.959901267895475e-05,-1.8606750018079765e-05
-0.00013751001097261906,0.00021477873087860644,-5.489388422574848e-05
-0.00019293188233859837,0.00035305102937854826,-7.405564974760637e-05
-1.3495563507603947e-05,0.0003702754620462656,-6.202673102961853e-05
0.00020000184304080904,0.00023608439369127154,-4.0411796362604946e-05
0.0001891185384010896,8.638192230137065e-05,-2.565885915828403e-05
5.91928546782583e-05,2.485089862602763e-05,-2.4176146325771697e-05
4.664966763812117e-05,1.523109312984161e-05,-2.729697916947771e-05
0.00013378096628002822,1.1944069228775334e-05,-2.782878073048778e-05
0.00013669897452928126,5.752806828240864e-06,-2.701478842936922e-05
-9.246233275916893e-06,-4.950234142597765e-06,-3.229879803257063e-05
-0.0002047322632279247,-2.847433279384859e-05,-4.154506677878089e-05
-0.00035510791349224746,-6.246028351597488e-05,-5.2849893108941615e-05
-0.00045724029769189656,-8.775641617830843e-05,-7.026329694781452e-05
-0.00045957727706991136,-8.155576506396756e-05,-9.078646689886227e-05
-0.00029752656701020896,-3.568625106709078e-05,-9.840395796345547e-05
-8.803271339274943e-05,3.067714715143666e-05,-7.78059838921763e-05
-1.9783707102760673e-05,7.584793638670817e-05,-4.1257029806729406e-05
-9.571399277774617e-05,7.606809231219813e-05,-1.7158890841528773e-05
-0.00015078014985192567,5.190507727093063e-05,-1.7977943571167998e-05
-4.898680344922468e-05,2.9224649551906623e-05,-3.407435360713862e-05
0.00021254747116472572,1.1636031558737159e-05,-4.696327596320771e-05
0.0005034554633311927,-5.18004617333645e-06,-3.831921276287176e-05
0.0006592041463591158,-1.5216071005852427e-05,-2.164620354960789e-06
0.000607612484600395,-1.478658668929711e-05,4.202568015898578e-05
0.00040671179885976017,-1.3072256479063071e-05,6.290277087828144e-05
0.00017681194003671408,-9.443114322493784e-06,5.0541417294880375e-05
1.6708676412235945e-05,4.984327915735776e-06,1.808322485885583e-05
-6.097307777963579e-05,3.34079195454251e-05,-5.769952622358687e-06
-0.00011365125101292506,6.528041558340192e-05,-8.893209269444924e-06
-0.0003100736648775637,8.937999518821016e-05,-2.866612476282171e-06
-0.000688330561388284,0.00010526784171815962,2.5942015327018453e-06
-0.000920490943826735,9.638008486945182e-05,5.448747288028244e-06
-0.0008025421411730349,6.224213575478643e-05,4.9930548584598e-07
-0.0004917344194836915,1.9419250747887418e-05,-8.65979654918192e-06
-0.00020052657055202872,-1.890355270006694e-05,-1.265463561139768e-05
-5.949586466158507e-06,-4.96780157845933e-05,-1.30458520288812e-05
0.00018596161680761725,-7.568569708382711e-05,-1.5988818631740287e-05
0.0004680080455727875,-9.846386819845065e-05,-1.9011673430213705e-05
0.0007034094305709004,-0.00012576981680467725,-1.57834238052601e-05
0.000716745329555124,-0.00017859374929685146,-7.324977559619583e-06
0.0005317795439623296,-0.00022528191038873047,2.401120127615286e-06
0.00026283910847269,-0.0001844376529334113,7.551592261734186e-06
1.2907438758702483e-05,-5.7065855799010023e-05,3.936771918233717e-06
-3.656817716546357e-05,5.951970524620265e-05,-8.900899047148414e-06
0.00018568092491477728,0.00011143891606479883,-2.5555156753398478e-05
0.000346885877661407,0.00013617869990412146,-4.0207862184615806e-05
8.001659443834797e-05,0.00016086323012132198,-4.5711502025369555e-05
-0.000488761521410197,0.0001600337418494746,-3.9993970858631656e-05
-0.000893637421540916,0.00011346120300004259,-3.2176591048482805e-05
-0.0008240520837716758,3.6503872252069414e-05,-3.515453136060387e-05
-0.0003326961596030742,-5.429900556919165e-05,-5.457417501020245e-05
0.00015043311577755958,-0.00015055817493703216,-7.182468107203022e-05
0.0003080301685258746,-0.0002135484101017937,-6.315768405329436e-05
0.0002511479542590678,-0.00016074077575467527,-4.154430644121021e-05
0.0001732444070512429,-1.8955906853079796e-05,-3.2853928132681176e-05
0.00014954322250559926,8.183165482478216e-05,-4.8473091737832874e-05
7.302721496671438e-05,0.00010212870256509632,-6.698365905322134e-05
-8.677781443111598e-05,8.04319788585417e-05,-7.138939690776169e-05
-0.00013297860277816653,6.232067971723154e-05,-7.091131556080654e-05
0.00011359686322975904,5.595254697254859e-05,-6.964011117815971e-05
0.0005306520033627748,2.393124123045709e-05,-6.95459166308865e-05
0.0008084350847639143,-2.5434714189032093e-05,-6.923067849129438e-05
0.0008138988050632179,-4.873943544225767e-05,-6.51318987365812e-05
0.0006596927414648235,-3.364934673300013e-05,-5.9072488511446863e-05
0.0005239445599727333,-5.034897640143754e-06,-5.5511398386443034e-05
0.0003797363315243274,1.4603152521885931e-05,-4.6437198761850595e-05
0.00014828234270680696,1.8051274309982546e-05,-2.5132529117399827e-05
-0.0001131941971834749,1.4106575690675527e-05,-5.397188942879438e-06
-0.0002887563896365464,1.2440424143278506e-05,-1.4159157217363827e-05
-0.00035298021975904703,8.82171207194915e-06,-6.109333480708301e-05
-0.00032926330459304154,-2.1997691419528564e-06,-0.00012902775779366493
-0.00020556712115649134,-1.0103954991791397e-05,-0.000184069067472592
8.691383300174493e-06,2.4576529540354386e-06,-0.00020474125631153584
0.0002055005170404911,2.9996479497640394e-05,-0.0001938255736604333
0.000299773586448282,5.260797843220644e-05,-0.0001642686693230644
0.00032653112430125475,5.86772985116113e-05,-0.00011528946197358891
0.0002773131709545851,5.5051688832463697e-05,-2.4723392925807275e-05
0.00016414333367720246,5.426246571005322e-05,0.00010490597924217582
9.287095599574968e-05,6.407972250599414e-05,0.00021161221957299858
0.00010536077024880797,7.976644701557234e-05,0.0002483758726157248
0.00014812772860750556,8.623844041721895e-05,0.00024190508702304214
0.00018237311451230198,5.922951459069736e-05,0.00020319854957051575
0.00016654095088597387,1.369422534480691e-05,0.00013730490172747523
7.442985952366143e-05,-2.556095523686963e-06,8.058127423282713e-05
-5.890977627132088e-05,1.5983607227099128e-05,4.5447010052157566e-05
-0.00017642637249082327,2.7168494852958247e-05,2.2746979084331542e-05
-0.00024920099531300366,1.0752159141702577e-05,5.864065315108746e-06
-0.0002708055544644594,-1.3590949492936488e-05,-4.625321253115544e-06
-0.00024187949020415545,-3.0289398637250997e-05,-1.0189146451011766e-05
-0.00019197333313059062,-4.0086586523102596e-05,-1.1637072930170689e-05
-0.0001442277862224728,-3.53661562257912e-05,-9.814297300181352e-06
-8.757826435612515e-05,-1.5508407159359194e-05,-5.4221418395172805e-06
-2.573247729742434e-05,2.66068741439085e-06,-1.240617393705179e-06
3.712353645823896e-06,2.6123521820409223e-05,-1.4543073802997242e-06
-1.2504582628025673e-05,8.310250996146351e-05,-8.685783541295677e-06
-3.331136394990608e-05,0.00014501588884741068,-2.1078558347653598e-05
-3.1232386390911415e-05,0.00014087851741351187,-3.066366116399877e-05
-5.630227860820014e-06,6.262365059228614e-05,-3.4343738661846146e-05
4.549110235529952e-05,-1.816137410060037e-05,-3.533482595230453e-05
0.00013796759594697505,-3.969391036662273e-05,-3.462810127530247e-05
0.0002482534619048238,-2.4241171558969654e-05,-3.224160536774434e-05
0.00028427105280570686,-2.843638685590122e-05,-3.1742154533276334e-05
0.00018481559527572244,-5.828441135236062e-05,-3.33975549438037e-05
2.7697393306880258e-05,-7.493019802495837e-05,-3.547772212186828e-05
-7.00430100550875e-05,-5.611549204331823e-05,-3.6747496778843924e-05
-0.00011300430196570233,-2.2060712581151165e-05,-3.999314867542125e-05
-0.00017977207608055323,-1.516811039437016e-06,-5.12368897034321e-05
-0.00029581552371382713,1.1908108717761934e-05,-6.892607780173421e-05
-0.0004619872779585421,3.6782210372621194e-05,-7.983553950907663e-05
-0.0005010252934880555,4.809640086023137e-05,-7.44797071092762e-05
-0.00021296259365044534,3.092902261414565e-05,-5.2867479098495096e-05
0.00019524488016031682,2.6724239432951435e-05,-3.0377004804904573e-05
0.0003640815266408026,4.8603746108710766e-05,-2.4511964511475526e-05
0.00021798975649289787,7.41088661015965e-05,-3.939028101740405e-05
2.2155605620355345e-05,8.122788858599961e-05,-5.6537133787060156e-05
-3.2031316550273914e-06,8.050145697779953e-05,-5.575450632022694e-05
9.705066622700542e-05,8.587061165599152e-05,-3.6441986594581977e-05
0.00017238082364201546,8.966439054347575e-05,-1.4691448996018153e-05
0.00016508167027495801,8.087657624855638e-05,-1.0989006113959476e-05
8.51034710649401e-05,5.8342873671790585e-05,-2.2800340957473963e-05
-3.505304266582243e-05,3.9165086491266266e-05,-3.0454863008344546e-05
-0.00010772878886200488,4.6612702135462314e-05,-2.4197654056479223e-05
-7.91400161688216e-05,9.067236533155665e-05,-1.4984558220021427e-05
-1.1044016900996212e-05,0.00013458944158628583,-1.4971598830015864e-05
1.9853920093737543e-05,0.00010887537791859359,-2.3395665266434662e-05
1.3325974578037858e-05,-3.168214334436925e-06,-3.3058939152397215e-05
2.0563935322570615e-05,-0.00012701895320788026,-3.976956577389501e-05
0.00016303610755130649,-0.00018318695947527885,-4.207158781355247e-05
0.0004487464320845902,-0.00016910962585825473,-4.4520405936054885e-05
0.0005930846091359854,-0.0001580581156304106,-5.0783102778950706e-05
0.00039990729419514537,-0.00020406479598022997,-5.936307570664212e-05
5.4748197726439685e-05,-0.0002782105002552271,-6.572219717781991e-05
-0.0001828807289712131,-0.0003059360315091908,-6.679452053504065e-05
-0.0002525901363696903,-0.00024408401804976165,-6.253722676774487e-05
-0.00024074807879514992,-0.00012800389959011227,-5.2999526815256104e-05
-0.00020125994342379272,-1.450950003345497e-05,-4.116190393688157e-05
-0.0001490642607677728,5.169459109310992e-05,-3.2622949220240116e-05
-0.00019505790260154754,9.86362574622035e-05,-3.131186167593114e-05
-0.0005275584990158677,0.000168980288435705,-3.127452509943396e-05
-0.0009995654691010714,0.00020065174612682313,-2.0358971596579067e-05
-0.001202671555802226,0.00016277718532364815,-3.4229258289997233e-06
-0.0009691152954474092,0.00011041460675187409,4.847268428420648e-06
-0.0004660682752728462,0.00010420233593322337,4.886137503490318e-06
6.123389903223142e-05,0.00013727147597819567,1.520911155239446e-06
0.0005217450088821352,0.00015813497884664685,-6.2667349993716925e-06
0.0010280972346663475,0.00012994041026104242,-1.6737742043915205e-05
0.001567496219649911,7.564688712591305e-05,-2.329378912691027e-05
0.0017354291630908847,4.2048126488225535e-05,-1.9988981875940226e-05
0.001322831609286368,4.787809666595422e-05,-1.0491923603694886e-05
0.000600907951593399,7.361202733591199e-05,-3.2427458336314885e-06
-7.172193727456033e-05,7.196172373369336e-05,-2.536594138291548e-06
-0.000487060024170205,5.079616585135227e-06,-9.265111657441594e-06
-0.0005516059463843703,-0.00010755975381471217,-2.262290581711568e-05
-0.00038916562334634364,-0.00017746705270837992,-3.6440811527427286e-05
-0.00023512804182246327,-0.000139089475851506,-4.027915929327719e-05
-0.00017484254203736782,-2.7432923161541112e-05,-3.403939990676008e-05
-0.0001782342151273042,6.334458157652989e-05,-2.849673001037445e-05
-0.00013655413931701332,0.00010065735841635615,-2.9907605494372547e-05
5.888771192985587e-05,0.00011718260066118091,-2.962758117064368e-05
0.00030268827686086297,0.00011318438919261098,-2.114692142640706e-05
0.00041324523044750094,3.914348053513095e-05,-1.3406543075689115e-05
0.00039518592529930174,-0.00010221166303381324,-1.3449855941871647e-05
0.0003312050539534539,-0.00025506666861474514,-1.4026893040863797e-05
0.0002678860037121922,-0.0003132415877189487,-1.3822326764056925e-05
0.0002694485301617533,-0.00023813021834939718,-1.4048401681066025e-05
0.0003135962469968945,-0.00010064329399028793,-1.5598534446326084e-05
0.0002936742384918034,3.8013945413695183e-06,-1.9552540834411047e-05
0.00029614908271469176,3.184723391314037e-05,-1.7541104170959443e-05
0.00038862318615429103,4.186267324257642e-05,-1.2167601198598277e-05
0.00044835233711637557,8.364475070266053e-05,-7.705827556492295e-06
0.00039441869012080133,0.00013699302508030087,-1.1933046152989846e-05
0.00028862475301139057,0.0001434246078133583,-2.815132938849274e-05
0.00016768946079537272,0.00010960189683828503,-4.5173925173003227e-05
1.0438157005410176e-05,7.628156163264066e-05,-5.354610402719118e-05
-0.0002045423025265336,6.53923416393809e-05,-5.3028696129331365e-05
-0.0004280383582226932,6.532502447953448e-05,-5.024204438086599e-05
-0.0005139231216162443,5.8481396990828216e-05,-4.779858863912523e-05
-0.00042339935316704214,3.674557592603378e-05,-4.392907430883497e-05
-0.00024364270211663097,3.1984359338821378e-06,-3.308649320388213e-05
-7.079564966261387e-05,1.3009371286898386e-05,-1.7434049368603155e-05
7.930443825898692e-05,0.0001280798896914348,-1.1126690878882073e-05
0.00025761863798834383,0.00027957657584920526,-2.4236980607383884e-05
0.00042894345824606717,0.00028511061100289226,-4.322598033468239e-05
0.0004221762646920979,0.00012977299047634006,-4.850242112297565e-05
0.0002166303456760943,1.1898335969817708e-06,-3.887263665092178e-05
2.1619018298224546e-05,-6.356877293001162e-06,-2.741016578511335e-05
-3.595100497477688e-05,3.5200569982407615e-05,-1.8310927771381103e-05
-3.163723522447981e-05,6.950953684281558e-05,-1.0293749255652074e-05
-5.6165194109780714e-05,8.66240807226859e-05,-7.0742871685069986e-06
-0.0001825521612772718,8.698114834260195e-05,-4.729614829557249e-06
-0.0004567682626657188,6.521832256112248e-05,-3.5037865018239245e-06
-0.0007062968797981739,4.626866484613856e-06,-1.0784343430714216e-05
-0.000722189957741648,-7.555543561466038e-05,-2.465795296302531e-05
-0.00058986886870116,-0.00011743032519007102,-3.636558903963305e-05
-0.0004032127617392689,-9.203450463246554e-05,-4.3095016735605896e-05
-6.675583426840603e-05,-1.8223376173409633e-05,-4.976277341484092e-05
0.000337205856340006,4.979429650120437e-05,-5.531362694455311e-05
0.0005561666912399232,6.261681119212881e-05,-5.955407686997205e-05
0.0005303957732394338,2.118490783686866e-06,-6.719749217154458e-05
0.0004297572886571288,-0.00010127068526344374,-7.673757500015199e-05
0.0003227153210900724,-0.00018582478514872491,-8.56114347698167e-05
7.158255903050303e-05,-0.00021826717420481145,-9.634731395635754e-05
-0.00037881286698393524,-0.00020174718520138413,-0.00011181291483808309
-0.0008079217514023185,-0.000116305127448868,-0.0001244828599737957
-0.0009455635445192456,6.79427248542197e-05,-0.00012029345089104027
-0.0007838382152840495,0.0002619752485770732,-9.104526543524116e-05
-0.0005167998606339097,0.0003045308112632483,-3.894748442689888e-05
-0.00019214849453419447,0.000171053790836595,3.806802851613611e-05
0.00031522102653980255,-3.2532805107621243e-06,0.00013230866170488298
0.0008725032093934715,-0.00010683284926926717,0.00019206621800549328
0.0010380293242633343,-0.0001339684968115762,0.00016597856301814318
0.0006550755933858454,-0.0001478243211749941,8.601805166108534e-05
0.00013903292710892856,-0.00020293518900871277,2.398487958998885e-05
-5.636326386593282e-05,-0.0002661503094714135,9.654935638536699e-06
-8.879065717337653e-05,-0.00025783973978832364,2.234252679045312e-05
-0.0003373557119630277,-0.0001757627906044945,2.6364090444985777e-05
-0.0006625067908316851,-7.407419616356492e-05,8.181531484297011e-06
-0.0007022833451628685,-2.2105799871496856e-05,-1.850924309110269e-05
-0.00039325476973317564,-2.1826816009706818e-05,-2.6937697839457542e-05
5.531313581741415e-05,-1.0000073416449595e-05,-4.667294433602365e-06
0.000397039606468752,3.90393688576296e-05,2.7631989723886363e-05
0.0005064240540377796,0.0001011533458949998,3.882720920955762e-05
0.0005349178100004792,0.00012041292939102277,2.43150661844993e-05
0.0006678086938336492,8.154022361850366e-05,-9.952801519830246e-06
0.0008005428244359791,3.679941073642112e-05,-4.549901495920494e-05
0.0008053964702412486,3.634077438618988e-05,-6.216418114490807e-05
0.0007553938776254654,3.199287675670348e-05,-5.7290504628326744e-05
0.0007965461700223386,-1.100231020245701e-05,-4.3783351429738104e-05
0.0009204356465488672,-5.5242730013560504e-05,-3.6029865441378206e-05
0.0009122294140979648,-6.261520320549607e-05,-3.6005974834552035e-05
0.0006483792676590383,-3.6642493796534836e-05,-3.714430204126984e-05
0.000265682814642787,6.6307302404311486e-06,-3.64223524229601e-05
-4.875687955063768e-05,8.208463987102732e-05,-4.355560304247774e-05
-0.00024469487834721804,0.00017757857858669013,-6.050063529983163e-05
-0.00030603850609622896,0.0002145471516996622,-7.227880996651947e-05
-0.00020000817312393337,0.00014326648670248687,-6.565507646882907e-05
4.920815172226867e-06,3.5196841054130346e-05,-4.765545600093901e-05
0.0001508841960458085,-1.3051534551777877e-05,-3.237669079680927e-05
0.00014262780314311385,1.3980259609525092e-05,-2.873749144782778e-05
-1.0128188478120137e-05,4.802004332304932e-05,-3.918741276720539e-05
-0.00029263694887049496,2.4752607714617625e-05,-6.295878119999543e-05
-0.0005544694722630084,-5.467640221468173e-06,-9.00261293281801e-05
-0.00053312600357458,9.329068416263908e-05,-0.00010706629836931825
-0.0002661018806975335,0.0002603518369141966,-0.00011409708531573415
-0.00011344169615767896,0.00027151216636411846,-0.00011783032095991075
-0.00013717591355089098,0.00015658226038794965,-0.00011619361612247303
-0.00016305096505675465,7.641622505616397e-05,-0.00010383882181486115
-0.0001744227047311142,5.197079372010194e-05,-8.036441431613639e-05
-0.00018771682516671717,3.669027137220837e-05,-4.804300988325849e-05
-0.00020160293206572533,4.46953936261707e-06,3.0577687084587524e-06
-0.00019681465346366167,-2.0690356905106455e-05,7.418202585540712e-05
-0.0001756873243721202,-4.0276525396620855e-05,0.00012501816672738642
-0.00010377018043072894,-5.461330511025153e-05,0.00012451939983293414
-3.541881960700266e-05,-5.458655141410418e-05,8.552290819352493e-05
-6.963824125705287e-05,-1.8316253772354685e-05,3.9882892451714724e-05
-0.00017883592227008194,5.955570304649882e-05,1.6353531464119442e-05
-0.0002777389599941671,0.00013011536793783307,1.8496817574487068e-05
-0.0003540243487805128,0.00013999374641571194,2.271524499519728e-05
-0.0004628579190466553,8.975182572612539e-05,1.2006970791844651e-05
-0.0006186399259604514,1.821343357732985e-05,-5.118006811244413e-06
-0.0007686740136705339,-4.7194782382575795e-05,-1.5943329344736412e-05
-0.0007982500828802586,-8.504292782163247e-05,-2.1261637812131085e-05
-0.0005789992865175009,-8.228111255448312e-05,-2.5196530259563588e-05
-9.287369903177023e-05,-4.3589760025497526e-05,-2.639711783558596e-05
0.00042644000495783985,-5.0972384997294284e-06,-2.880106694647111e-05
0.0006789608742110431,9.002254955703393e-06,-4.240486305207014e-05
0.0005970963975414634,3.2645484679960646e-06,-6.740096432622522e-05
0.00033471491769887507,-5.229745056567481e-06,-9.591507114237174e-05
7.635203655809164e-05,-1.3967986888019368e-05,-0.00011401149822631851
7.165859642555006e-06,-2.325436616956722e-05,-0.00011611929949140176
0.00022168872237671167,-2.581102125986945e-05,-0.00010722927254391834
0.0006208423292264342,-1.4416847989195958e-05,-8.215899288188666e-05
0.000897996302228421,-1.2059405889885966e-05,-2.0062199837411754e-05
0.000840872700791806,-3.998019019491039e-05,5.524675361812115e-05
0.0005773865850642323,-7.327030471060425e-05,0.00010011099220719188
0.0003578093310352415,-7.644033757969737e-05,0.0001046362885972485
0.0002276752784382552,-5.449204400065355e-05,7.761579036014155e-05
7.393831765512004e-05,-2.459508687024936e-05,4.6441138692898676e-05
-0.00011900166282430291,1.0591444151941687e-05,2.277801468153484e-05
-0.00028859288431704044,4.196850204607472e-05,6.43447629045113e-06
-0.0004043959197588265,4.673371586250141e-05,-6.131437203293899e-06
-0.0004762572643812746,2.4996903448482044e-05,-8.67341168486746e-06
-0.0004694278759416193,1.1476581676106434e-06,-5.235907337919343e-06
-0.0003178957849740982,-1.4815380382060539e-05,-7.002940037637018e-06
-2.6381465431768447e-05,-2.8976763132959604e-05,-1.5965944839990698e-05
0.0003161572094541043,-5.008384687243961e-05,-2.612796743051149e-05
0.0005815265467390418,-7.374906272161752e-05,-3.3302727388218045e-05
0.0006570517434738576,-8.52130469866097e-05,-3.804024527198635e-05
0.0005383183597587049,-7.800180901540443e-05,-4.069478018209338e-05
0.0003255264018662274,-6.996490265009925e-05,-4.525720578385517e-05
9.259426587959751e-05,-6.999506149441004e-05,-4.829948011320084e-05
-0.00017525254224892706,-4.85638520331122e-05,-4.562850881484337e-05
-0.00039863097481429577,2.873587072826922e-05,-4.122500467929058e-05
-0.00037926947697997093,0.00012148008681833744,-4.16537732235156e-05
-0.00016517734911758453,0.00017747322272043675,-4.349133087089285e-05
4.810133759747259e-06,0.00019860430620610714,-4.5031338231638074e-05
0.0001159572639153339,0.0001773233962012455,-4.026220995001495e-05
0.0003375313535798341,9.364150173496455e-05,-2.9010565413045697e-05
0.0006404252490028739,7.44994031265378e-06,-1.804136627470143e-05
0.0007544815307483077,1.6285772289847955e-05,-7.686765457037836e-06
0.0005566923646256328,0.0001097140193451196,6.35534752291278e-06
0.00023733041598461568,0.00017321277118753642,1.8063072275253944e-05
2.6460145818418823e-05,0.00014224248297978193,1.9433367924648337e-05
-0.00015274781617335975,7.140158413676545e-05,1.0657861821528058e-05
-0.0004586087597999722,1.1711464139807504e-05,8.657976877657347e-07
-0.0009150542900897563,-2.415873132122215e-05,-9.39142069000809e-07
-0.0014159447746351361,-2.4489761926815845e-05,2.1362716324802022e-06
-0.0017943215789273381,-2.0610996216419153e-05,-6.853987542854156e-06
-0.001778883975930512,-6.604656664421782e-05,-3.622173244366422e-05
-0.0011494728969410062,-0.00012298223737161607,-7.49699684092775e-05
-0.00011786485265474766,-0.000121443641546648,-0.00010171940812142566
0.0008538292022421956,-8.197019633371383e-05,-0.0001060948270605877
0.0014568615006282926,-6.501182360807434e-05,-9.540847531752661e-05
0.0015961716417223215,-8.158879791153595e-05,-8.191957022063434e-05
0.001285729929804802,-0.00010149821173399687,-7.255356467794627e-05
0.000864160421770066,-0.00010283098526997492,-6.554529682034627e-05
0.0007308082422241569,-8.164637256413698e-05,-5.82122738705948e-05
0.0008017729851417243,-5.968406912870705e-05,-4.937077028444037e-05
0.0007310948567464948,-5.7051354815484956e-05,-4.466723476070911e-05
0.0005176555132493377,-6.462651072070003e-05,-4.444337901077233e-05
0.00037354035885073245,-5.46001065231394e-05,-4.0610677388031036e-05
0.00031324350857175887,-1.668699405854568e-05,-3.1031286198413e-05
0.000236014137044549,3.310756801511161e-05,-2.364939427934587e-05
0.00015237097977660596,7.950621511554345e-05,-1.9312745280331e-05
0.0001323195028817281,0.00011194592661922798,-1.812325353967026e-05
0.00015131769760046154,0.0001250028726644814,-2.1724898033426143e-05
9.098170994548127e-05,0.0001392004924127832,-2.6437199267093092e-05
-9.988798410631716e-05,0.0001333279360551387,-2.4343498807866126e-05
-0.00031921634217724204,3.6057663237443194e-05,-1.825600520533044e-05
-0.0005320472992025316,-0.00011261170584475622,-1.7463653421145864e-05
-0.0007323251338675618,-0.00018150523828808218,-2.178611066483427e-05
-0.000719768984708935,-0.00013480638153851032,-2.089140616590157e-05
-0.0004051501746289432,-1.9763856471399777e-05,-1.4560042473021895e-05
-2.4916806069086306e-05,0.0001200453843921423,-8.389078175241593e-06
0.00023956672521308064,0.00023159684496931732,-3.942735474993242e-06
0.00035741081228479743,0.0002768572885543108,-2.7040114218834788e-06
0.00025820278096944094,0.00025981629732996225,-4.445734248292865e-06
-2.308181683474686e-05,0.00020348784164525568,-7.263521183631383e-06
-0.00027065275935456157,0.00014558057591784745,-1.4900914720783476e-05
-0.00041654694359749556,0.00011323381477268413,-3.80619712814223e-05
-0.0005158480489626527,8.181497832993045e-05,-7.393425767077133e-05
-0.0005156697588972747,1.129801785282325e-05,-0.00010266432218486443
-0.0003473255201242864,-8.396751218242571e-05,-0.00011046148574678227
-7.839865429559723e-05,-0.0001399425236741081,-0.00010423849744256586
0.00018998571613337845,-0.00012430419155862182,-9.672621672507375e-05
0.00035617806133814156,-6.574625876965001e-05,-9.011448855744675e-05
0.0003647501580417156,-1.4271018699218985e-05,-7.859645847929642e-05
0.0002746217942330986,1.1463197324701468e-06,-5.3163043048698455e-05
0.00018680692301131785,-1.5599878679495305e-05,4.026040642202133e-06
0.00015150247782003134,-2.4319095246028155e-05,6.408272020053118e-05
8.7654625531286e-05,1.3690952073375229e-05,6.133687566034496e-05
-8.761055505601689e-05,6.0762853536289185e-05,2.6707043616625015e-06
-0.00033240014454349875,6.781797856092453e-05,-3.406657560844906e-05
-0.0005551539361476898,7.377146539511159e-05,-2.3376376702799462e-05
-0.0007302653975784779,9.1515903477557e-05,-1.7318370737484656e-06
-0.0007559952791780233,8.142501610564068e-05,8.178471944120247e-06
-0.0005850927555002272,3.1243431294569746e-05,1.0951181138807442e-05
-0.0003275329654570669,-3.354830914759077e-05,1.4035090316610876e-05
-4.228730176691897e-05,-6.948751251911744e-05,1.3428523743641563e-05
0.0002991321962326765,-8.283894567284733e-05,8.27940948511241e-06
0.0007471382850781083,-9.168591350317001e-05,-3.5523337373888353e-06
0.0011635080445557833,-9.652670996729285e-05,-9.067527571460232e-06
0.001233490533195436,-9.561311162542552e-05,3.0592332223022822e-06
0.0009049492073245347,-9.110598330153152e-05,2.3113854695111513e-05
0.0005327551625669003,-8.378200436709449e-05,3.087170989601873e-05
0.0004199528484605253,-7.887852552812546e-05,1.846245322667528e-05
0.0005048718303442001,-7.969023863552138e-05,-1.095697484743141e-06
0.0005611106171272695,-6.991688860580325e-05,-1.1984348930127453e-05
0.00045486571616493165,-3.804928564932197e-05,-8.863927178026643e-06
0.00014875613851472735,1.5428775441250764e-05,-2.7701894396159332e-06
-0.0003100707835983485,0.00012130849063396454,-9.567109373165295e-06
-0.0006866048788651824,0.0002771378494799137,-3.150051270495169e-05
-0.0007732040248811245,0.00035210014902986586,-4.919599450659007e-05
-0.0007475288002751768,0.00025978017947636545,-5.2004346798639745e-05
-0.0007579840021207929,8.448943117400631e-05,-4.922952575725503e-05
-0.0006874131504446268,-5.130509816808626e-05,-4.608207746059634e-05
-0.000445873272838071,-0.00010270037455484271,-3.692086465889588e-05
-5.723878712160513e-05,-9.712739120004699e-05,-2.8822454623878002e-05
0.00022995274048298597,-5.9982969105476514e-05,-2.9725508284172975e-05
0.00011019497469533235,4.910237294097897e-06,-3.8641373976133764e-05
-0.00018103480397257954,7.097799971234053e-05,-5.107300967210904e-05
-0.00010328684584237635,0.0001079921203199774,-6.063617183826864e-05
0.00026281882310286164,0.00012107224756618962,-5.232882540440187e-05
0.0005595297552645206,0.0001320336596108973,-2.3584774680784903e-05
0.000673315895255655,0.00013329589273780584,-2.83096937891969e-07
0.0006126688094809651,0.00011189132055733353,-3.74676460523915e-06
0.0005988190532661974,6.967216177145019e-05,-3.0352623070939444e-05
0.0007899344200268388,1.738162973197177e-05,-6.227148696780205e-05
0.0008968915790319443,-5.2234889153623953e-05,-8.288040407933295e-05
0.0006954495911486447,-0.0001442084030713886,-8.496071677654982e-05
0.00035571979242376983,-0.0002382604288868606,-7.982686656760052e-05
0.00014751270646229386,-0.000301985302940011,-7.723981252638623e-05
0.00010527803533477709,-0.0003123888745903969,-7.066296529956162e-05
0.00010952595039270818,-0.00026936494396068156,-4.886047827312723e-05
0.00010095338802784681,-0.00018934097897727042,-1.5477704437216744e-05
7.955674664117396e-05,-9.974736167350784e-05,1.9832441466860473e-05
2.2396181520889513e-05,-2.284396941831801e-05,5.603246972896159e-05
-0.00013431991101242602,3.614269007812254e-05,8.482260454911739e-05
-0.00035073189064860344,8.594855171395466e-05,8.902895933715627e-05
-0.0005295221344567835,0.00011778149928431958,7.037676550680771e-05
