-6.33795707472018e-06,4.67184727312997e-05,-9.581808262737468e-05
-7.949661267048214e-07,4.65549310320057e-05,-0.00011936055670958012
3.279625889263116e-05,2.501968265278265e-05,-0.00013396951544564217
5.451652396004647e-05,-5.975795374979498e-06,-0.00013688276521861553
3.476363417576067e-05,-2.1520678274100646e-05,-0.0001116796483984217
-1.4506656043522526e-05,-8.000819434528239e-06,-6.563058559549972e-05
-5.191472519072704e-05,1.1731885024346411e-05,-1.0947295777441468e-05
-4.527164128376171e-05,9.88491501630051e-06,6.30642898613587e-05
-9.669411156210117e-06,-1.727395283523947e-05,0.00014393968740478158
9.90406442724634e-06,-4.802429612027481e-05,0.00017119222320616245
5.961706847301684e-06,-6.413994560716674e-05,7.075123721733689e-05
-1.2468191016523633e-05,-6.152918649604544e-05,-0.00017549193580634892
-3.900481169694103e-05,-4.497199188335799e-05,-0.0003703936527017504
-5.2014078391948715e-05,-2.4999202651088126e-05,-0.00030486067407764494
-5.335680543794297e-05,-9.508549737802241e-06,-0.00011888583685504273
-5.620384035864845e-05,-2.5358940547448583e-06,-6.114619463915005e-05
-5.491163392434828e-05,-4.355703367764363e-06,-0.00014350705896504223
-3.928320438717492e-05,-1.028564201988047e-05,-0.00020461383974179626
-1.9699376935022883e-05,-1.0905025192187168e-05,-0.00017519037646707147
-2.298726258231909e-06,-9.384407348989043e-06,-0.00011764903319999576
1.5977213479345664e-05,-1.3694238987227436e-05,-7.409935642499477e-05
3.308415034553036e-05,-1.8529104636400007e-05,-1.3159559784980956e-05
3.9207803638419136e-05,-4.709519089374226e-06,8.23095761006698e-05
1.797885852283798e-05,2.9741722755716182e-05,0.00015411297499667853
-2.8706383091048338e-05,5.928842074354179e-05,0.00014886447752360255
-6.93696056259796e-05,6.038622814230621e-05,8.728851389605552e-05
-7.072150765452534e-05,3.92835027014371e-05,5.0440434279153123e-05
-3.732540790224448e-05,2.1765321434941143e-05,0.00010133284376934171
4.52137192041846e-06,2.4187011149479076e-05,0.00020184338791295886
3.41357481374871e-05,3.9698395994491875e-05,0.0002598231367301196
5.780033825431019e-05,5.474599311128259e-05,0.00027307149139232934
8.646139758639038e-05,6.165547529235482e-05,0.00026223869645036757
0.000106012899777852,4.9326492444379255e-05,0.0002033133787335828
9.584108920535073e-05,1.7989535990636796e-05,0.00012492226960603148
6.185120582813397e-05,-1.3253474207886029e-05,9.14887641556561e-05
2.2220176106202416e-05,-2.472531377861742e-05,0.00013430137187242508
-3.6716892282129265e-06,-1.2159894140495453e-05,0.00017681781901046634
-1.6029753169277683e-05,4.011650617030682e-06,8.281083864858374e-05
-2.278634019603487e-05,-1.0753480239600322e-07,-0.00010837358422577381
-1.8054479369311593e-05,-2.3422757294611074e-05,-0.00017271660908591002
-8.569889359932858e-06,-3.996151644969359e-05,-5.66524249734357e-05
-6.385345841408707e-06,-4.022461507702246e-05,3.33366624545306e-05
-1.9539667846402153e-05,-4.647709283744916e-05,-2.4572244001319632e-05
-4.20286160078831e-05,-7.372409891104326e-05,-0.00015810568584129214
-5.7256940635852516e-05,-0.00010784839832922444,-0.00023226888151839375
-4.74163462058641e-05,-0.00011628680658759549,-0.00018300663214176893
-1.5223779882944655e-05,-9.514389967080206e-05,-2.6491383323445916e-05
2.0677840439020656e-05,-6.497610593214631e-05,0.00016158499056473374
4.522868766798638e-05,-4.915074896416627e-05,0.00025342038134112954
5.441133180283941e-05,-5.049680839874782e-05,0.00017507529992144555
5.0997357902815565e-05,-4.857433305005543e-05,1.6627715240247198e-06
4.3632055167108774e-05,-3.3173448173329234e-05,-0.00010418257443234324
4.128989894525148e-05,-1.4348707736644428e-05,-9.749742457643151e-05
3.525069041643292e-05,-5.282531105876842e-07,-5.171518569113687e-05
1.223396338900784e-05,1.0712397852330469e-05,-1.6140440493472852e-05
-1.9516095562721603e-05,2.5736584575497545e-05,1.784421328920871e-05
-3.686323907459155e-05,4.767242353409529e-05,4.959776561008766e-05
-2.997588671860285e-05,6.249803118407726e-05,5.129007695359178e-05
-8.563829396734945e-06,5.7625806221039966e-05,2.9027636628597975e-05
8.731062735023443e-06,3.757960075745359e-05,6.914870027685538e-05
8.730070476303808e-06,1.9307075490360148e-05,0.0001783097832230851
-8.421371603617445e-06,1.1812914635811467e-05,0.0001956284831976518
-2.497645436960738e-05,6.526106062665349e-06,6.334236240945756e-05
-2.1057227058918215e-05,-4.386298769532004e-06,-6.688958092126995e-05
-5.266855168883922e-06,-1.3061409845249727e-05,-0.00014828167331870645
1.8781138066970016e-07,-1.129733027482871e-05,-0.0002217242872575298
-5.984412837278796e-06,-3.6121275570621947e-06,-0.00025026779621839523
-1.422903824277455e-05,-3.469190687610535e-06,-0.0002216732973465696
-1.6654139471938834e-05,-8.27320218377281e-06,-0.0001375343999825418
-1.6768592104199342e-05,-7.018931682978291e-06,-2.428882180538494e-05
-1.1528882168931887e-05,4.188472757959971e-06,8.879550296114758e-05
-1.184729171654908e-06,1.3399580893747043e-05,0.00016137384227477014
9.051062079379335e-06,7.112470484571531e-06,0.00017404314712621272
1.256536506843986e-05,-7.137209649954457e-06,0.00015428483311552554
1.3147207027941477e-05,-1.3566493180405814e-05,0.00015460175927728415
2.3814378437236883e-05,-8.764368431002367e-06,0.00018998135055880994
3.36260927724652e-05,-9.874538591247983e-06,0.00021433566871564835
2.688798849703744e-05,-2.3906119167804718e-05,0.00019440527830738574
1.398100266669644e-05,-3.389240737305954e-05,0.000149182349559851
1.546556995890569e-05,-2.6855163014261052e-05,0.00011910564353456721
2.318036786164157e-05,-1.2187066204205621e-05,0.00010309580829925835
2.0200088329147547e-05,-3.7516870179388206e-06,6.597962783416733e-05
9.417807632416952e-06,-6.128556378826033e-06,-5.0515260227257386e-05
6.211730578797869e-06,-1.2163916835561395e-05,-0.00024279403442051262
8.129100933729205e-06,-1.7261127140955068e-05,-0.00039147198549471796
1.1443939911259804e-05,-2.1631562049151398e-05,-0.0003972598060499877
2.1088510038680397e-05,-1.3354555449041072e-05,-0.0003201508952770382
3.597906470531598e-05,9.357672752230428e-06,-0.0002212540857726708
5.208883521845564e-05,2.1909452698309906e-05,-8.116839308058843e-05
6.796463276259601e-05,1.9450557374511845e-05,9.971437975764275e-05
5.993791273795068e-05,1.444023109797854e-05,0.00024660085909999907
2.7360496460460126e-05,6.741835477441782e-06,0.0003604887460824102
-5.175652859179536e-06,-5.64193715035799e-06,0.0004579738306347281
-3.8242011214606464e-05,-2.0947732991771773e-05,0.000462821451947093
-6.733537884429097e-05,-2.7967902497039177e-05,0.00033870298648253083
-8.524238364771008e-05,-2.1130133973201737e-05,7.714620005572215e-05
-8.562427683500573e-05,-7.332115274039097e-06,-0.00025293524959124625
-7.453802390955389e-05,1.872409598036029e-06,-0.0004884170484729111
-7.057181937852874e-05,-2.5614640435378533e-06,-0.00047861121129244566
-7.938149792607874e-05,-1.5259798601618968e-05,-0.00028915630537085235
-8.446352876489982e-05,-2.705886981857475e-05,-9.079459414351732e-05
-7.093520252965391e-05,-2.96889957098756e-05,4.334736513555981e-05
-3.37777855747845e-05,-1.91075996553991e-05,0.00011483405251055956
1.5533400073763914e-05,-3.403367372811772e-06,0.0001253574009751901
5.3907278925180435e-05,4.558429736789549e-06,0.00010019958426710218
6.988760287640616e-05,1.913195092129172e-06,7.17059665475972e-05
6.989359826548025e-05,-4.127781721763313e-06,2.9742242986685596e-05
5.9377693105489016e-05,-1.0148748515348416e-05,-1.5950434317346662e-05
3.6587687645806e-05,-1.4782700418436434e-05,-4.783844929079351e-07
8.233136213675607e-06,-1.0977859346894547e-05,0.00012970910756848752
-1.506858734501293e-05,7.35154389985837e-06,0.00029807008104398847
-2.9422884836094454e-05,3.135650331387296e-05,0.00033628157689236104
-2.9760252800770104e-05,4.2634634155547246e-05,0.00020535310613922775
-1.5964462363626808e-05,3.400542846065946e-05,8.935560617828742e-05
-1.6543696119697415e-06,1.7283395209233277e-05,9.686809062259272e-05
1.202019029733492e-05,7.625037596881157e-06,0.00014484726125374436
2.3771735868649557e-05,1.493266609031707e-05,0.00010867442324524745
1.683162736298982e-05,2.851655153790489e-05,-1.5610308764735237e-05
-1.539759432489518e-05,2.1965559426462278e-05,-0.00010308206401532516
-4.946474655298516e-05,-1.3076197546979529e-06,-9.003352897707373e-05
-7.326885679503903e-05,-2.2902710043126717e-05,-3.04760251310654e-05
-8.11783829703927e-05,-2.525447962398175e-05,1.0398881386208814e-05
-6.621559441555291e-05,-4.332056050770916e-06,-2.0120331100770272e-05
-4.4433367293095216e-05,1.9048988178838044e-05,-0.00011413241008995101
-3.70708730770275e-05,2.657690129126422e-05,-0.000230326215387322
-4.235294909449294e-05,1.548705949971918e-05,-0.00029394563171081245
-4.1301536839455366e-05,-1.2627502883333364e-06,-0.0002321153733646497
-2.6227768103126436e-05,-1.2317347682255786e-05,-8.246929064625874e-05
-2.1394127998064505e-06,-9.779574611457065e-06,6.489494990091771e-05
2.0615952962543815e-05,-1.5598683944517688e-07,0.00014651379024144262
3.4045737265842035e-05,1.4594744470741716e-06,0.00015572425036225468
3.4804532333509997e-05,-7.939535862533376e-06,0.00013023144856560975
2.955679337901529e-05,-1.966603122127708e-05,0.00011104053555754945
2.821183079504408e-05,-2.8637650757445954e-05,6.42013328615576e-05
3.4715358196990564e-05,-3.629284765338525e-05,-4.793449625140056e-05
4.7517391067231074e-05,-4.0059068851405755e-05,-0.00015647643886040896
6.75532064633444e-05,-3.6374538467498496e-05,-0.00016187124128919095
8.670180250192061e-05,-3.23054518958088e-05,-7.511010335292667e-05
8.908491872716695e-05,-3.6293007724452764e-05,1.773400254023727e-05
7.098394416971132e-05,-3.543011189321987e-05,6.026701157679781e-05
4.163712583249435e-05,-1.5174383406701963e-05,7.788048969814554e-05
1.7622138329898007e-05,1.160680676548509e-05,0.00014405453111976385
1.169917140941834e-05,2.2786573026678525e-05,0.00027245550882071257
9.254719770979136e-06,2.2864536731503904e-05,0.0003437626000959426
-1.7497141016065143e-05,3.219570862711407e-05,0.0002799801586661488
-5.503015927388333e-05,5.682370101567358e-05,0.00017574387311469764
-6.390724593074992e-05,7.526280387537554e-05,8.719220932107419e-05
-3.275116250733845e-05,7.522824307670817e-05,-1.1929284482903313e-05
9.846098691923544e-06,6.537824810948223e-05,-0.00010177163494518027
3.115903746220283e-05,5.3284955356502905e-05,-0.00014559268311131746
3.3843152777990326e-05,3.7240799429127946e-05,-0.000143118406413123
2.6692750907386653e-05,1.5049018657009583e-05,-0.00012121344479965046
9.255145414499566e-06,-2.629286427691113e-06,-9.631173452362418e-05
-8.537979738321155e-06,-8.86544967215741e-06,-7.329074287554249e-05
-1.683887603576295e-05,-7.460202596121235e-06,-5.997197513352148e-05
-2.1666181055479683e-05,-2.3871311896073166e-06,-6.279087392613292e-05
-3.0412145861191675e-05,1.565154434501892e-06,-8.450956374872476e-05
-3.655353430076502e-05,-3.5139191822963767e-06,-0.00012805622827727348
-3.1893123377813026e-05,-1.1616814845183399e-05,-0.00016248197061941028
-2.3074333512340672e-05,-1.2175892152299639e-05,-0.00014894419291522354
-2.3631258954992518e-05,-5.889545263926266e-06,-0.00010206835577264428
-3.4972104913322255e-05,2.3419131593982456e-06,-5.5477274145232514e-05
-4.254915620549582e-05,1.0802667929965537e-05,-1.2909835277241655e-05
-3.3173433621414006e-05,1.7007776477839798e-05,2.8045773433404975e-05
-1.5103446457942482e-05,1.6683226931490935e-05,5.3726813348475844e-05
-6.8532176555891056e-06,9.175256309390534e-06,6.265412230277434e-05
-8.339688065461814e-06,-5.2174500524415635e-06,7.487655966542661e-05
-8.31159923109226e-06,-2.3511716790380888e-05,0.0001002723365672864
-7.609190106450114e-06,-3.3116357371909544e-05,0.0001189912436529994
-1.3125263649271801e-05,-2.8029229724779725e-05,0.00012088636867702007
-2.8991007638978772e-05,-1.2700150364253204e-05,0.00010924644448095933
-3.851407745969482e-05,4.403560524224304e-06,0.00010738840501289815
-3.307215592940338e-05,2.595176556496881e-05,0.00012073163816239685
-2.7296893676975742e-05,5.884507481823675e-05,0.00014097726671025157
-1.4466617358266376e-05,8.138770499499515e-05,0.00019315678218845278
1.5565548892482184e-05,7.524868124164641e-05,0.0002726934908423573
5.757005055784248e-05,5.449957825476304e-05,0.00033094992977567017
9.845788008533418e-05,3.73058755940292e-05,0.0003158862527925521
0.00011338264448568225,2.3373717340291478e-05,0.0002283680223627016
9.804851288208738e-05,1.6892219719011337e-05,0.00012857414549216628
7.593708141939715e-05,1.2262943528185133e-05,5.869285450899042e-05
6.641802610829473e-05,-3.1326903808803763e-06,2.2540030840900727e-05
6.706961721647531e-05,-2.1021780412411317e-05,-1.985778726520948e-05
6.478874274762347e-05,-2.3935983335832134e-05,-9.661908552516252e-05
4.9462254537502304e-05,-6.972670234972611e-06,-0.0001803470659069717
2.4943912649177946e-05,1.708742456685286e-05,-0.00021580609609372914
7.164110229496146e-06,2.912702620960772e-05,-0.00018508420907892287
7.324046691792319e-06,1.9210461687180214e-05,-0.00012624920054804534
1.4829880456090905e-05,1.7070134106234036e-07,-8.610495569882914e-05
8.91295258043101e-06,-1.2382998647808563e-05,-8.213082764996216e-05
-9.909722393786069e-06,-1.877870090538636e-05,-8.93468240974471e-05
-2.5593957616365515e-05,-2.7096622943645343e-05,-7.465441740350798e-05
-3.379106419743039e-05,-3.615452442318201e-05,-4.505154720391147e-05
-4.283533780835569e-05,-3.853990710922517e-05,-3.802682476816699e-05
-5.0718881539069116e-05,-3.3901709684869274e-05,-6.988656969042495e-05
-4.542978422250599e-05,-2.6952735424856655e-05,-0.00012226297985762358
-2.307682007085532e-05,-1.6169948139577173e-05,-0.00016767064516898245
1.0110365110449493e-05,-7.044729386507242e-07,-0.0001845045917434618
3.608956467360258e-05,1.2855298336944543e-06,-0.00013755304098594934
4.976457421435043e-05,-1.2485541446949355e-05,-4.799461748916656e-05
5.3421528718899935e-05,-1.887530743260868e-05,3.032132372027263e-05
4.5927870814921334e-05,-1.7204916730406694e-05,8.954459190135822e-05
3.2452517189085484e-05,-2.609363400551956e-05,0.00014962090062908828
5.02258899359731e-06,-5.1367689593462273e-05,0.000216061802348122
-3.7987163523212075e-05,-7.354826084338129e-05,0.00027193600544705987
-8.17305117379874e-05,-7.046793325571343e-05,0.00028381048468872905
-0.0001040173156070523,-3.971765545429662e-05,0.00020820718782488257
-0.00010482135257916525,-1.529867950011976e-05,4.4019157940056175e-05
-8.553039515390992e-05,-2.017688166233711e-05,-0.00011215581616852432
-4.8054589569801465e-05,-3.504233973217197e-05,-0.00013308045163284987
-4.528323643171461e-06,-3.572472633095458e-05,-5.730459452024661e-05
2.8317152100498788e-05,-1.961866109922994e-05,-4.330798037699424e-05
4.307984636398032e-05,2.8045028557244223e-06,-0.00011316958261886612
4.946164699504152e-05,2.273032623634208e-05,-0.00014112073404248804
5.281692574499175e-05,3.6474400985753164e-05,-6.916563143022358e-05
4.155669012106955e-05,4.0178154449677095e-05,4.2693791328929365e-05
1.0027126336353831e-05,2.656815922819078e-05,0.00014108764298725873
-1.9209261154173873e-05,3.462020231381757e-06,0.0001696792314760387
-4.0271635953104123e-05,-1.1965109479206149e-05,9.914235124597326e-05
-6.129229586804286e-05,-1.2033699022140354e-05,-4.898378165307804e-07
-7.494175952160731e-05,-3.0019530186109478e-06,-6.071001189411618e-05
-6.691518501611426e-05,5.274430350254988e-06,-0.00010345455666538328
-3.511957038426772e-05,3.879904852510663e-06,-0.0001750419323798269
3.314254399811034e-06,-4.264442850399064e-06,-0.000245263654505834
2.669760760909412e-05,-3.3941994388442254e-06,-0.00030517892446368933
2.2218553567654453e-05,1.677860927884467e-05,-0.00035632128128781915
-3.7342483665270265e-06,3.273608672316186e-05,-0.0003564002108760178
-2.7988471629214473e-05,2.2635060304310173e-05,-0.000291521631879732
-2.7818112357635982e-05,-2.0167569800833007e-06,-0.00017797507462091744
-1.3887145087210229e-06,-2.5334051315439865e-05,-4.253236693330109e-05
1.7157506590592675e-05,-3.709068550961092e-05,0.00010032656427938491
1.9118529962725006e-05,-3.094818748650141e-05,0.0002441860851831734
1.938581954163965e-05,-1.403216265316587e-05,0.00038906492409296334
3.277186624472961e-05,3.4271540698682657e-06,0.000489938713144511
4.901163629256189e-05,1.8444879970047623e-05,0.0005213519907556474
4.6765610022703186e-05,2.461560143274255e-05,0.0005151074728928506
2.5807206839090213e-05,1.7694648704491556e-05,0.00047470119898207486
5.926588983129477e-06,5.251385573501466e-06,0.0003711192694026977
-2.6557347609923454e-06,-4.793213065568125e-06,0.0001757486315909773
-1.4364340131578501e-05,-1.3298690646479372e-05,-9.790818148758262e-05
-3.054448825423606e-05,-2.2268566681304947e-05,-0.0003305877617094666
-3.599138290155679e-05,-2.9264210752444342e-05,-0.0003601079515647143
-2.6684374461183324e-05,-3.541984551702626e-05,-0.00019740962306968868
-1.73259850271279e-05,-4.355627243057825e-05,-3.9311358705163e-05
-1.5117181646928657e-05,-5.217733996687457e-05,-2.1372838091338053e-05
-2.030721771006938e-05,-6.156363087939098e-05,-8.826763951219618e-05
-2.2714681108482182e-05,-6.91408131388016e-05,-0.00010552450839895755
-6.1649839153687935e-06,-6.35043834336102e-05,3.151247710775351e-06
4.346656351117417e-05,-3.3835247450042516e-05,0.0001943285606103018
9.883749589789659e-05,4.453430392459268e-06,0.000317500380333513
0.00012696025078184903,3.0491921279462986e-05,0.0002483903372194618
0.00012812550994567573,4.1117691580438986e-05,6.930940435267985e-05
0.00010269731137668714,4.006511517218314e-05,1.0082609151140787e-05
6.436413241317496e-05,3.50289665220771e-05,8.82345120771788e-05
3.620871211751364e-05,2.6571120542939752e-05,0.00016785906336735934
2.3024600523058325e-05,1.6485211745020933e-05,0.0002292725257575512
1.920670001709368e-05,6.68924258206971e-06,0.00027841629344038665
8.956014426075853e-06,-6.700676294713048e-06,0.00031168622081167996
-1.5358451491920277e-05,-2.1746516722487286e-05,0.0002691797853913158
-4.643616557586938e-05,-3.9381691749440506e-05,0.0001064440657501109
-7.340295269386843e-05,-5.477300874190405e-05,-0.00011405735131120309
-8.783466910244897e-05,-5.654244887409732e-05,-0.00026924736448563635
-9.011755901155993e-05,-4.0402777813142166e-05,-0.0002954007650259882
-9.019528806675225e-05,-1.1115587767562829e-05,-0.0002173921966459602
-8.693426934769377e-05,2.1670799469575286e-05,-0.0001232011418323964
-6.5987667767331e-05,4.303172681829892e-05,-8.884697308531031e-05
-3.526144428178668e-05,4.299342617741786e-05,-0.00012040470755891874
-1.735469231789466e-05,2.9919750886620022e-05,-0.0001736554258968681
-1.2094203157175798e-05,2.00238519028062e-05,-0.00018504064064472914
-2.6480893211555667e-07,1.7980190023081377e-05,-0.00013928234693594277
2.1043730157543905e-05,1.7999984265770763e-05,-6.927605863893405e-05
3.950586324208416e-05,1.5516383427893743e-05,-1.3477195352606941e-05
4.566870484268293e-05,1.0377439139119815e-05,2.0205678083584644e-05
4.011248529423028e-05,8.159053322742693e-06,3.392536746105179e-05
2.6392184736323543e-05,6.527106052089948e-06,4.237555549480021e-05
1.2713656360574532e-05,-3.368928901181789e-06,5.1296199671924114e-05
2.906253257606295e-06,-1.5858417100389488e-05,7.586283754790202e-05
8.347787350260205e-09,-1.1020606507372577e-05,0.00010487465624464676
7.210792318801396e-06,1.2355581020528916e-05,8.738852193346247e-05
1.6523470549145713e-05,2.229563870059792e-05,2.232938822999131e-05
1.843178142735269e-05,5.9941248764516786e-06,-1.8456565157976e-05
5.320353011484258e-06,-1.5563548004138283e-05,-1.4390867363545112e-05
-2.430541644571349e-05,-2.3525730284745805e-05,-4.480631105252542e-06
-5.478435195982456e-05,-1.36336366267642e-05,-5.281670382828452e-06
-6.506726640509441e-05,2.5976326014642837e-06,-2.2877545688970713e-06
-5.14417261001654e-05,1.4597258996218443e-05,-2.5308386284450535e-06
-3.105265204794705e-05,1.387498286931077e-05,-1.3333497008716222e-05
-2.7453972506918944e-05,2.065680064333719e-06,-3.056426430703141e-05
-3.944956915802322e-05,-6.912292974448064e-06,-4.0123275539372116e-05
-4.278745109331794e-05,-4.957912551617483e-06,-3.0216086088330485e-05
-2.4639057301101275e-05,1.9575700207496993e-06,-1.3396518625086173e-05
5.882786808797391e-06,2.1815468187469378e-07,-1.200216865981929e-05
3.073679908993654e-05,-1.2508177860581782e-05,-2.8983007723581977e-05
3.722270412254147e-05,-2.1429879780043848e-05,-2.678128657862544e-05
2.7742276870412752e-05,-1.450118998036487e-05,2.2788153728470206e-05
2.1460862626554444e-05,-1.8636972072272329e-06,0.00010993341857101768
3.0922714358894154e-05,1.336221089331957e-06,0.00019416100985836238
4.379228994366713e-05,-1.2916570995002985e-06,0.0002481481642462313
3.7627927667927e-05,3.5860120988218114e-06,0.00027151574613526464
1.8202987121185288e-05,1.5421515854541212e-05,0.0002709596883505583
1.3362467143451795e-05,2.2514735974255018e-05,0.00020851967565249652
3.403483424335718e-05,2.036374826275278e-05,1.644534495426342e-05
6.340376421576366e-05,1.8525091945775785e-05,-0.0002632586983963847
7.453462603734806e-05,2.0959359972039238e-05,-0.0003802616847679019
6.672171730315313e-05,2.0690182282123715e-05,-0.00019296695245429873
5.1799750508507714e-05,1.1106290912721306e-05,9.536727156955749e-05
3.613415901781991e-05,2.8110201810704893e-07,0.00018352216284256428
2.3192418666440062e-05,-2.628650690894574e-06,5.0396927690599114e-05
9.687719284556806e-06,-2.6346499453211436e-06,-0.00011021015234291553
-4.893634923064383e-06,-4.88638988827006e-06,-0.0001562737743370235
-1.2827974387619179e-05,-1.4886963072058279e-05,-0.00010614214988891035
-1.0902694157266524e-05,-2.8722270144498907e-05,-5.85323796258308e-05
-1.089742909243796e-05,-3.711854151333682e-05,-1.607197009434458e-05
-2.146026054106187e-05,-3.325062061776407e-05,3.0339007935253903e-05
-3.8358855817932636e-05,-2.5163108148262836e-05,5.248399611446075e-05
-5.038099334342405e-05,-1.7110889530158602e-05,1.3298304111231118e-05
-5.848654836881906e-05,7.655580134269258e-07,-5.940374103374779e-05
-6.927482900209725e-05,2.7125814085593447e-05,-9.440647409064695e-05
-7.376579742413014e-05,4.137911309953779e-05,-4.015873128082603e-05
-6.166328239487484e-05,3.190426286892034e-05,6.811467028455809e-05
-4.286372131900862e-05,1.802992119337432e-05,0.00013740402937401086
-3.036021371372044e-05,1.984977461688686e-05,0.00011236574937356636
-1.924206480907742e-05,3.5242712328908965e-05,2.2890755644766614e-05
-3.5392731660977006e-06,5.285761289997026e-05,-3.711234967340715e-05
8.420792255492415e-06,6.925901834620163e-05,-1.5764404452056624e-05
6.486628080892842e-06,7.608511077705771e-05,4.554282349999994e-05
-8.388831702177413e-06,6.263803516048938e-05,7.834433927200735e-05
-2.4494374883943237e-05,3.362443749210797e-05,8.32693767733872e-05
-2.4502149244653992e-05,7.957370144140441e-06,9.52575501287356e-05
-9.95066966424929e-06,-6.6281190811423585e-06,0.00011972114589298144
5.841652637172956e-06,-1.4986815585871227e-05,0.00012413926015142351
1.7128844774561003e-05,-1.676372812653426e-05,9.869122732197866e-05
1.6061370843090117e-05,-1.1593117051234003e-05,2.6167633677687263e-06
7.66355424275389e-06,-1.229389090440236e-05,-0.00017339397163596004
1.1867070497828536e-05,-2.1672769435099326e-05,-0.0002740602067206055
3.1644220143789425e-05,-2.853823571058456e-05,-0.000192921026609838
4.9386959290131927e-05,-2.7979414880974218e-05,-0.00014171458315104246
5.301216879161075e-05,-3.412200749153271e-05,-0.00026111610350199044
4.890918717137538e-05,-4.354025440989062e-05,-0.00032863966771401465
4.799814269063063e-05,-3.0770817829761654e-05,-0.00014994681987445801
5.1356768381083384e-05,-3.7227182474453002e-06,0.00019328983034938574
4.938916754326783e-05,9.485390364716295e-06,0.0004426927480380982
4.759852890856564e-05,4.06005028708023e-06,0.0004381341568659991
5.084120130049996e-05,6.237754405447049e-06,0.0002688937238417566
4.3766915041487664e-05,2.0310508261900395e-05,0.00014254609413910657
1.757562131388113e-05,2.352426599827595e-05,0.00017244735499843955
-1.4386968359758612e-05,4.128138698433759e-06,0.00031499890610575676
-4.2067978938575834e-05,-2.0685607523773797e-05,0.0004426778177730739
-6.189996202010661e-05,-4.123017060919665e-05,0.0004430826229508966
-6.833545194240287e-05,-6.672159361187369e-05,0.0002933737705461681
-6.503978511318564e-05,-9.019012213684618e-05,7.701563299633563e-05
-6.078767910366878e-05,-9.35557036427781e-05,-9.419669368071482e-05
-5.369371865526773e-05,-8.255858847405761e-05,-0.00017555506201460958
-3.1642819521948695e-05,-7.524245302192867e-05,-0.00021616161393467337
-7.524790362367639e-06,-7.260969141498208e-05,-0.00032274099066853523
-8.71639883825992e-07,-6.99516458553262e-05,-0.00045719961053691804
-7.574213668704033e-06,-5.8551297115627676e-05,-0.0004155942879151553
-2.9792525310767815e-05,-2.8955839297850616e-05,-0.0002156494156224653
-6.42596569377929e-05,2.579655483714305e-05,-7.381493196589872e-05
-7.413668936351314e-05,9.841858991421759e-05,-2.8945854865014553e-05
-3.913867840310559e-05,0.00015954830450937152,3.6098538203077624e-06
2.1643389118253253e-05,0.0001972171157831326,3.3740394428605214e-05
7.119526708265767e-05,0.0002051298797596246,2.5556893888278864e-05
9.635900642024353e-05,0.00017679996381048113,-4.584254838846391e-06
0.00010596589709166437,0.00012922679889015853,1.775904638634529e-05
0.00010225439473288134,8.164480823324993e-05,0.00011138044646941125
8.927788439905271e-05,5.1976912800455466e-05,0.00018151882977690548
7.088521670084447e-05,3.4828539355657995e-05,0.00016273219080176204
5.0602986448211595e-05,2.2958067347644828e-05,9.994641732191667e-05
2.9311782782315277e-05,1.0385058885731269e-05,4.923297819914296e-05
1.1255437129875645e-05,-7.637916496605612e-06,-1.6474082258355338e-06
-2.55392910730734e-06,-2.2007776351529174e-05,-6.663934618700296e-05
-1.882133619801607e-05,-1.9948060071328655e-05,-0.00010299947462044656
-4.4479689677245915e-05,-1.1304202416795306e-05,-7.774488767609e-05
-7.767380157019943e-05,-1.5946408893796615e-05,-1.9608882212196477e-05
-0.00010357631981605664,-2.8953525543329306e-05,2.442163895466365e-05
-0.00010697200923459604,-3.731675315066241e-05,5.0561233365442604e-05
-8.772086584940553e-05,-3.76886673620902e-05,7.679619739064947e-05
-6.10895876889117e-05,-3.149376789224334e-05,8.034722122829407e-05
-3.558678145054728e-05,-1.844044709287118e-05,2.244060488010291e-05
-1.0024831681221258e-05,-1.2826966667489614e-05,-7.027017272775993e-05
1.4063923117646482e-05,-2.9379098123172298e-05,-0.00013476279855240136
3.0500694265356287e-05,-5.718650572816841e-05,-0.00013950039283372462
3.7266043364070356e-05,-7.081342482706532e-05,-8.796140173217282e-05
3.2900712540140375e-05,-6.20265636825934e-05,6.191416446199582e-07
1.792589137039613e-05,-4.720862489193678e-05,5.557851181947626e-05
2.8463578019000124e-06,-4.331556920078583e-05,3.8371352275134996e-05
-1.279926800634712e-05,-3.611535794334486e-05,4.1420196794206277e-05
-3.105293944827281e-05,-1.1519403415150009e-05,0.0001050347855198197
-3.71678797819186e-05,1.5217181498883292e-05,0.0001686829054960981
-2.9592709324788302e-05,1.7520171240903437e-05,0.00021855978411622345
-1.4240547898225486e-05,-7.3929745667555835e-06,0.00025093648582696915
7.076267593220109e-06,-3.349620965309441e-05,0.0001673143560765311
2.52932350122137e-05,-3.1891584512777627e-05,-7.054927846184e-05
2.6742074624053203e-05,-9.372504791826941e-06,-0.00024617789313197136
2.092986505886074e-06,4.150253971602069e-06,-0.00014383363304659724
-3.4868891816586256e-05,-3.5126590773870703e-06,0.00013367673091124743
-4.868458563578315e-05,-1.5284129403880797e-05,0.00034139223862439394
-2.5106852262979373e-05,-1.447543763788417e-05,0.00034860221785493195
1.161370710178744e-05,-7.838236342649907e-06,0.00016606177086941898
4.1890998545568436e-05,-5.955447250016732e-06,-3.576737435651012e-05
6.765091529814526e-05,-7.879517397668678e-06,-7.68914251239039e-05
8.381597581319511e-05,-4.86250519315945e-06,2.1429092157632113e-05
7.817527512088418e-05,-2.5719466520968126e-06,9.900800796458498e-05
5.089661499368958e-05,-1.1846134839288425e-05,8.223012264352292e-05
1.3937423318566289e-05,-2.9558959795394912e-05,2.0737845261464827e-05
-9.330345164926257e-06,-3.361614653840661e-05,-3.8989248423604295e-05
-1.1731451195373666e-05,-1.4774695046071429e-05,-8.659219020046294e-05
-1.7204036339535378e-05,7.558724064438138e-06,-0.00012988180969841778
-3.386954631423578e-05,1.6514646631549112e-05,-0.00016704890003893524
-4.58411050203722e-05,1.9473251086310484e-05,-0.00016008470265660435
-4.271710349712521e-05,1.9303943190607242e-05,-0.00010589724843157455
-2.3224672986543737e-05,8.69530595082324e-06,-4.543301110970788e-05
6.171969744173111e-06,-3.3064949889194395e-07,-2.1339950762921944e-05
2.5002314941957593e-05,9.32888997340342e-06,-5.331999636837281e-05
1.9835992134176195e-05,2.4985480195027776e-05,-0.00011626719788182527
7.2824195740395226e-06,2.5014305720105767e-05,-0.00016161271196324378
9.085300689548603e-07,1.1673369954223745e-05,-0.00011729184188880026
-3.896196432151555e-08,-2.756388767011231e-06,2.7093996322946623e-05
9.34132856400538e-07,-1.0147605280508287e-05,0.00017817145271692425
-4.570043074636487e-06,-1.0105720321007539e-05,0.0002440685493638739
-2.030364703387022e-05,-1.1942106539208908e-05,0.00017404109530616552
-3.655566615634598e-05,-2.474606480973307e-05,-1.7253098121727817e-05
-3.970965190092102e-05,-4.454116788110696e-05,-0.0001508089917479083
-2.5790084691834636e-05,-5.966389289824292e-05,-9.97732495306991e-05
-6.565478088305099e-06,-6.224100070539862e-05,1.9882105334545486e-05
9.102509466174524e-06,-4.853125210502185e-05,4.361250830697827e-05
2.2128078853711486e-05,-2.1108238797751255e-05,-1.4224556252884213e-05
3.3785025152610615e-05,1.1352935871400405e-05,-4.607571827364154e-05
4.448188337846659e-05,3.929841477656737e-05,-3.498516889521852e-05
5.5649721616646275e-05,5.297038296703249e-05,-2.7119031074107625e-05
6.359427788993344e-05,5.149715798324905e-05,-3.64477455150336e-05
6.015254257363267e-05,4.4993361370870844e-05,-3.724092312040739e-05
4.9594971642363816e-05,3.7293051718734205e-05,-3.1391224183607846e-05
3.638719499576837e-05,2.4621918782941066e-05,-4.756673297379166e-05
1.9580385924200527e-05,9.218371815222781e-06,-6.50317088002339e-05
7.017530151642859e-06,3.977620963269146e-06,-3.84900595236104e-05
8.10805522633018e-06,1.0691116585803684e-05,1.971807432710193e-05
1.73633306985721e-05,1.215953307109885e-05,9.212928853230551e-05
2.5962162908399478e-05,4.5299730118131265e-06,0.0001682750298641622
2.526785829104483e-05,-5.914866051170975e-06,0.0002556635008659214
8.659835657454096e-06,-1.569517371535767e-05,0.00031997993937693536
-1.6776748452684842e-05,-2.743803088378627e-05,0.00029481688397936523
-3.476988786133006e-05,-3.269105945946649e-05,0.00015567221271339804
-3.5127555747749284e-05,-2.0627239791792817e-05,-1.173365944850957e-05
-2.891290387196932e-05,-1.3376699143918813e-06,-8.66645041242009e-06
-2.6407353288959712e-05,1.4807440493314061e-05,0.00015568464004900306
-1.9789889847743325e-05,2.7559206500882283e-05,0.0001923858653753996
-5.932203748670872e-06,3.874851972796023e-05,-1.2609976693056524e-05
4.546333002508618e-06,3.8563179259654135e-05,-0.00023771122505422682
1.5328970448535983e-06,1.9153156245010905e-05,-0.0003110704419668764
-1.1180525689269416e-05,-1.0165187632082961e-05,-0.00032752350671216846
-2.2548942069988698e-05,-3.550109613570385e-05,-0.000389758322853595
-1.993732075789012e-05,-5.1267626986373216e-05,-0.0004131841706112027
-5.278556614030094e-07,-5.5776312365196645e-05,-0.0003060043090954423
2.2330632418743335e-05,-4.9542071792529896e-05,-9.948931256076321e-05
3.7711088225478306e-05,-3.892437962349504e-05,8.843630348565057e-05
5.101241549709812e-05,-2.9075968996039592e-05,0.00018124276539310813
6.827251490904018e-05,-1.8402999558020383e-05,0.00019844554481096566
7.846715743653476e-05,-6.843659321020823e-06,0.00018454858218319714
6.671855226159096e-05,9.19284502742812e-06,0.0001467396941734478
3.673779428936541e-05,3.520239260978997e-05,0.0001037961701513268
8.408635949308518e-06,5.836384661961347e-05,9.386535384692252e-05
-3.7057830013509374e-06,6.0843147366540506e-05,0.00011108787293778732
-1.7417767594452016e-05,4.296896804589778e-05,0.00013962479715701193
-6.312751065706834e-05,2.025523099291604e-05,0.00016401332686655223
-0.00012110185343772173,5.697344477084698e-06,0.00016648603195790201
-0.00014561827993020415,-2.7066162147093564e-06,0.00014626340998802334
-0.00011638882278930396,1.343926442132215e-06,0.0001338297442998737
-5.962666909908876e-05,1.4571667634299956e-05,0.00013544152898248285
-1.4897377695888281e-05,1.672955295362044e-05,0.00013075167953502387
4.202046966383932e-06,5.089193564344896e-07,0.00011132620420539752
2.9413745323836338e-06,-1.943248753377702e-05,7.182177796494216e-05
-1.1720323527697474e-05,-1.4425737390411086e-05,2.766030593193136e-05
-3.597921386244707e-05,1.88776266440982e-05,4.727792202174896e-06
-5.409146615420468e-05,5.8639485359890386e-05,-3.581109240258229e-06
-5.6322416639886796e-05,7.850847759982571e-05,-1.1795369573519565e-05
-3.9307313272729516e-05,7.277297845575958e-05,-2.520972657293896e-06
-9.104372111323755e-06,4.949013964505866e-05,2.1241645299596712e-05
1.9213232008041814e-05,2.3759930627420545e-05,4.139362499699928e-05
2.9572944185929373e-05,5.969094218016835e-06,8.045550202950835e-05
1.4962233763071708e-05,-7.3745859481277876e-06,0.0001707007468212396
-1.8612094208947383e-05,-2.3958864403539337e-05,0.0002789957798086107
-5.542749204323627e-05,-4.320776497479528e-05,0.0002837279171217233
-7.24595010979101e-05,-5.9521320508792996e-05,7.342724711634219e-05
-5.674638305208646e-05,-6.818644760642201e-05,-0.0002359290956519544
-2.511379716452211e-05,-6.269216100918129e-05,-0.00033918433473445475
-5.8618456932890695e-06,-4.6546803787350655e-05,-0.00016141873493324965
-4.25917257018682e-08,-2.8493675927165896e-05,4.0406193875242025e-05
1.0700679013098124e-05,-1.8749806258711033e-05,7.992864993866533e-05
4.0247643482871354e-05,-1.146637077908963e-05,7.827277840988245e-06
6.793957436457276e-05,1.0898000255110674e-05,-9.759866952663288e-05
5.744442387367599e-05,4.3840915168402717e-05,-0.00020052128820680082
1.932622581080068e-05,6.123669299995527e-05,-0.00023397585027851164
6.2408130361291114e-06,4.840187466470525e-05,-0.0001297004782827571
4.5953940571052954e-05,1.656791937421076e-05,4.763746619573794e-05
9.592639980837703e-05,-4.949624326400226e-06,0.00016006470832508057
0.00010920525528490543,-5.59480895390152e-06,0.00011137409455841407
9.712091559777036e-05,-4.44401803179062e-06,-6.577650492545217e-05
7.46557125239633e-05,-1.0862979252124205e-05,-0.0002117384719895199
3.657208799268119e-05,-7.369301329163136e-06,-0.0002021939872065559
-9.043716090673115e-06,-6.846623819001252e-07,-7.318301504710689e-05
-2.822296301019378e-05,-1.0916143764916342e-05,3.693985127029009e-05
-1.1294384421489667e-05,-2.5375638870173134e-05,7.239818660309538e-05
1.8811540940077975e-05,-2.2439258827944286e-05,7.410493708448485e-05
3.323154305689968e-05,-4.204572178423405e-06,9.033406968228519e-05
2.7261505238129757e-05,1.3416658475762233e-05,9.595977462595329e-05
1.154252458945848e-05,2.178918475692626e-05,5.456352300825529e-05
-7.268718036357313e-06,1.6366833733627573e-05,-3.059870141441934e-05
-2.608208524179645e-05,1.3543459544962388e-06,-9.68340682447888e-05
-4.2877174564637244e-05,-1.1387482118152548e-05,-9.072731336345896e-05
-4.8705845983931795e-05,-1.4787391592108179e-05,-3.991219637100585e-05
-3.323774581076577e-05,-1.1942247510887682e-05,-6.27422332399874e-06
-2.0379096099532035e-07,-2.8578338060469832e-06,-4.2602187022566795e-07
2.262079760839697e-05,1.2260521543794312e-05,1.905928183987271e-05
1.1674707820930053e-05,2.756599133135751e-05,7.231372728710994e-05
-2.72708130069077e-05,3.468833529041149e-05,0.00012448872439563274
-6.389470945578068e-05,2.8117896363255568e-05,0.0001170612231362611
-7.865711086196825e-05,1.3406996004050598e-05,5.6405966461170465e-05
-7.004558574408293e-05,-5.3179956012172624e-06,-8.921109838411212e-06
-4.8425754357595e-05,-2.318749830010347e-05,-4.8468988097738475e-05
-2.5879402528516948e-05,-2.587550443422515e-05,-5.087146200821735e-05
-1.1993473890470341e-05,-1.3523456800612621e-05,-6.724993454554351e-06
-3.5439684324956033e-06,-1.6981321095954627e-06,4.566772622638382e-05
4.434931270225206e-06,1.0086124575536815e-06,8.059026004048064e-05
1.6502655853400938e-05,-7.217211077659158e-06,0.00011806775000877678
3.369496334926225e-05,-2.1386058506323025e-05,0.00015028957568574697
4.9136891902890056e-05,-2.9423212254187092e-05,0.00014224690676201135
5.968047116766684e-05,-3.4050855902023613e-05,9.005174069898203e-05
6.8227993324399e-05,-4.409317625686526e-05,2.33275604841765e-05
6.751376349711791e-05,-5.6030581617960706e-05,-1.3310720532899722e-05
5.8255183830624446e-05,-6.089318048907444e-05,-2.2805370463174768e-06
4.7713954700157046e-05,-5.4182462918106467e-05,2.7530428269528784e-05
2.4253877199953422e-05,-4.457724207895808e-05,2.1379211830208078e-05
-1.0976578778354451e-05,-4.4708016503136605e-05,-3.377582834218629e-05
-3.836989708361216e-05,-5.120961577631533e-05,-7.507224654546008e-05
-4.408833046909422e-05,-4.2294803279219195e-05,-5.251930997474119e-05
-4.187609738437459e-05,-5.7278316489828285e-06,7.0198834691836964e-06
-5.2113224228378385e-05,3.792706411331892e-05,4.9960712203755975e-05
-6.843102892162278e-05,6.249151920201257e-05,6.081309402361512e-05
-6.458385178120807e-05,6.895070691825822e-05,4.0674047340871766e-05
-3.376116001163609e-05,6.670502625638619e-05,-1.3011239389015827e-05
1.1710755643434823e-05,5.481337939272635e-05,-7.943747914396226e-05
5.7325676607433707e-05,3.208515408914536e-05,-0.00010497852781554684
8.45420072437264e-05,8.311781130032614e-06,-5.8631267165765166e-05
7.84467629273422e-05,-7.920636562630534e-06,1.601395160832908e-05
4.6507037041010335e-05,-1.592469197930768e-05,1.4939308130124118e-05
1.3742042028752621e-05,-2.0026624042657204e-05,-7.51835250412114e-05
-1.2350978067843243e-05,-1.539740878797602e-05,-0.0001887149701360613
-3.610772546380758e-05,6.620811291213613e-06,-0.0002590203075669706
-4.5698830945184454e-05,2.8798996936529875e-05,-0.000210053360206075
-3.190989082213491e-05,3.585935337468982e-05,-4.357677971711382e-05
-8.334483027283568e-06,2.678917007870041e-05,0.0001358230656478554
7.673607797187287e-06,9.473733371123672e-06,0.0002267157397000119
8.688077286933549e-06,-7.282050773937954e-06,0.00023339837207458913
-1.3087133083899971e-06,-1.9177306967321783e-05,0.0002056713419733569
-8.666135727253277e-06,-2.6018040443887003e-05,0.0001861252821981907
-1.4986354472057428e-05,-3.262041718699038e-05,0.00019568129209801555
-2.255209801660385e-05,-3.616379035520367e-05,0.00020891288295388222
-2.0493866031756625e-05,-3.304093479528092e-05,0.00020137205137871206
-3.439824013184989e-06,-1.998813240788877e-05,0.00017944730643648654
1.8470405848347582e-05,-1.201506734105351e-07,0.0001483762462157756
2.66344995907275e-05,1.4793869922868907e-05,9.830333874560893e-05
1.882541437225882e-05,1.809438253985718e-05,5.2614799642469734e-05
8.01024907559622e-06,1.5239796084642876e-05,2.9952092518215068e-05
4.63110063719796e-06,6.73616068525007e-06,-2.573760866653174e-05
1.010493633657461e-05,-5.2003274504386354e-06,-0.0001623406569706276
2.37129170272965e-05,-1.0752169146144297e-05,-0.00028071494307368994
3.5282140743220225e-05,-8.092018106253818e-06,-0.00023398494522552937
2.963025326607749e-05,-3.583642410376342e-06,-6.102128463680856e-05
9.977394256566186e-06,-2.7827957183035323e-06,5.91943426115904e-05
1.2897723991045495e-06,-6.884906269988278e-06,6.156180461402982e-05
1.6496042007929645e-05,-9.201961802318692e-06,1.79850758286193e-05
4.226832606946118e-05,-5.912707365496317e-06,-1.9310622519697063e-05
5.1987444749101996e-05,-4.28729435952846e-06,-7.107015699148178e-05
3.647895937319845e-05,-8.157653610396665e-06,-0.00014957650273572654
1.940988477144856e-05,-1.3639559256262146e-05,-0.00015086376515682787
1.5776711734361015e-05,-1.1367626939318143e-05,-3.344927608850412e-05
1.799558049242478e-05,-2.7191911158297444e-06,9.491860691923648e-05
1.171388339571422e-05,4.795263066625921e-06,0.0001483217056374997
-4.196357622276992e-06,7.802667823852971e-06,9.574638534104452e-05
-2.4275486794067547e-05,5.512194093171274e-06,-6.092921012168517e-06
-4.9582227802602574e-05,-2.180488763769972e-06,-5.306096136337146e-05
-7.197931699920446e-05,-1.0142984137928579e-05,-2.959296034532599e-05
-8.043791603995487e-05,-9.707345270726364e-06,-3.8120986573630944e-05
-7.511622970923781e-05,-1.619360091353883e-06,-0.00011696054571075365
-7.093429303495213e-05,5.7116021707770415e-06,-0.00014330346311908215
-7.395160355372354e-05,-6.2481944951287e-07,-1.1900045137736015e-05
-7.102074596332386e-05,-2.0336039597168565e-05,0.00018296729831490666
-5.285505176289007e-05,-3.6443576391320676e-05,0.00024279061472043395
-3.263276084908284e-05,-3.907532664015889e-05,0.00012420157145243138
-2.384908657404594e-05,-3.5081146052107215e-05,-7.481387456209632e-06
-1.5486944903386757e-05,-3.3567917853360996e-05,-1.0392926924396306e-05
5.472935299621895e-06,-3.4467102523194626e-05,6.747038423782215e-05
2.9378448743955232e-05,-3.4736462112050503e-05,0.00010641605331329629
4.165836799074896e-05,-3.0834798963041976e-05,6.162638601381332e-05
4.573284604703076e-05,-1.8358688976150006e-05,-1.8511514099373017e-06
4.7853969590505585e-05,3.179528675900656e-06,-1.6763439134592772e-06
4.6648678107885644e-05,2.695990406209603e-05,5.851367677678354e-05
3.587531318771653e-05,4.205650111543946e-05,8.921100379666314e-05
2.1045911125838757e-05,3.71851165255066e-05,1.196139351122838e-06
1.5620618796674535e-05,2.579710417194292e-05,-0.00017223514441866428
1.4190281035553198e-05,3.215411561541259e-05,-0.00030508136842399836
-5.123607479617931e-06,4.666454333346337e-05,-0.00027305647381581366
-3.382137219887227e-05,4.834953506360762e-05,-0.00011352519504725933
-5.298960968502797e-05,4.329082366893999e-05,-4.132928097533295e-06
-6.67448912281543e-05,4.0178954805014655e-05,-9.464154686611437e-07
-6.522826879518107e-05,2.96533944492694e-05,-3.3937823900487274e-05
-4.159974560025148e-05,1.3247341485111974e-05,-3.232451854273677e-05
-1.9322063963045366e-05,1.0344390830141492e-05,-1.06956395029556e-05
-2.4693386876606382e-05,2.1130836103111506e-05,3.7112022255314514e-05
-4.5690423576161265e-05,2.8787057090085e-05,0.00014028817531652749
-5.0122489483328536e-05,3.297473813290708e-05,0.0002676541334949434
-3.2774172723293304e-05,2.8465121431509033e-05,0.0003264527185820043
-1.2219611562613863e-05,1.0181446668866556e-05,0.00028038560412824154
-8.641731596981117e-07,-7.423861916322494e-06,0.00018967855430673808
9.960136594600044e-06,-1.0060026397695765e-05,0.00013560698425862938
2.9184689992689528e-05,-4.532123512035469e-06,0.00013191385369282216
4.3323168938513845e-05,-5.86485703024664e-06,0.00011174569226568565
3.848705819109455e-05,-1.3111942280374933e-05,3.076844950555824e-05
2.5544741220073774e-05,-1.2505230188253336e-05,-7.168825686676428e-05
2.556000617914833e-05,-1.4050543768462376e-06,-9.692632011137903e-05
4.092747622053139e-05,1.0153044968319591e-05,-4.531297963694669e-05
4.807267396245152e-05,2.5591367375454865e-05,-1.258425891137449e-05
3.382468275958672e-05,5.141034853295423e-05,-3.524568455759436e-05
2.351639705011621e-05,7.527961861342192e-05,-6.354480137815699e-05
3.392273356439546e-05,7.427793025271967e-05,-7.06630089553073e-05
4.575910134008154e-05,4.469044506549835e-05,-4.9239017243962735e-05
4.899532359559089e-05,5.311400400387356e-06,-1.0934066949630505e-06
5.132501610205509e-05,-2.2565818653674796e-05,4.3694701162166893e-05
5.2287337894085795e-05,-3.377025495865382e-05,4.396507574710995e-05
5.1013994379900396e-05,-3.060948074562475e-05,1.7235977793461643e-05
4.548692231765017e-05,-1.9484366930555552e-05,-9.554521056998055e-06
3.3116968552349135e-05,-1.2861351933679543e-05,-4.3978405301459134e-05
2.292293356731534e-05,-1.3057252544967923e-05,-8.203127072192729e-05
2.266157571284566e-05,-1.75558561750222e-05,-7.930149149615318e-05
3.078600639128126e-05,-2.6319050448364578e-05,-1.2988377420697361e-05
3.285411003162153e-05,-2.9643706511706114e-05,8.22326255729422e-05
2.533472070354037e-05,-2.197970934503246e-05,0.0001485863176640123
1.5958161384332925e-05,-2.102878897858318e-05,0.00015789942699484527
9.43888517213054e-06,-4.0682429244043306e-05,0.00013615818170364946
-1.061754119291436e-06,-7.616716175107285e-05,0.00011135740351164714
-1.7168311387649737e-05,-0.00010588637815089896,8.393721509492025e-05
-1.930500911839772e-05,-0.00011431739403633401,4.925832763547078e-05
-4.696753876487492e-06,-0.000103234953712672,1.579242780280765e-05
-3.1142935768002644e-06,-8.170257206074893e-05,-2.1421386918518692e-05
-3.193253724020906e-05,-5.31103833054658e-05,-8.566654287278652e-05
-6.484719779109582e-05,-2.317709368071519e-05,-0.00017158087575808167
-6.903894245624542e-05,-5.35281105840113e-06,-0.0002155269030481577
-4.013118814327754e-05,1.4877882676955778e-06,-0.00018510106019675732
-1.0467202628205996e-05,1.1189692486368585e-05,-0.00010377124999649823
-7.937946065794677e-06,2.8045767976436764e-05,-2.4352948457817547e-05
-2.3735259674140252e-05,5.3637511882698163e-05,-3.367957106092945e-05
-4.139332304475829e-05,7.677402027184144e-05,-0.00014211179222911596
-4.495993925957009e-05,7.944583921926096e-05,-0.0002070681657642126
-1.8181854102294892e-05,6.530227256007493e-05,-0.00015135921421460807
3.292492328910157e-05,4.378985249786638e-05,-4.4585267460206524e-05
6.562361522810534e-05,2.5531384380883537e-05,1.4236779861676041e-05
6.011251753079705e-05,1.5829002222744748e-05,1.935457476065494e-05
3.586574530345388e-05,1.9685798179125413e-05,1.9222025002818555e-05
8.645516572869383e-06,3.0546128982678056e-05,2.1961986931273714e-05
-3.5856608064932516e-06,3.185143941664137e-05,2.0841509467572905e-05
1.7852183873401373e-06,1.7005533663905226e-05,7.21734022590681e-06
2.2642714611720294e-05,5.384442829381442e-07,-4.425361112225801e-06
4.086092303623445e-05,-4.923180085825152e-07,3.361722292538616e-06
4.137331052334048e-05,1.0803568329720292e-05,4.1776682337513193e-05
2.705135011638049e-05,1.623565549380146e-05,9.273366595152766e-05
8.617401363153476e-06,5.409158347902121e-06,0.0001408429816365242
-5.853008133271942e-06,-1.2144490938226227e-05,0.00018060262664221227
-1.5519894077442586e-05,-2.18024397327099e-05,0.00018786508007906377
-2.0212413801345974e-05,-2.2783893655287102e-05,0.00014741871564183384
-2.6995061489287764e-05,-2.303528890479356e-05,0.0001143900808528997
-4.220747359795496e-05,-2.8197409847052768e-05,0.00016266937018372118
-6.305024726316333e-05,-3.618989649112336e-05,0.0002930052578449249
-7.616407674504444e-05,-3.554501381586306e-05,0.0004344552871771157
-7.465021190000698e-05,-2.11626393138431e-05,0.0004793111002072692
-5.713995051337406e-05,-4.903210083284648e-06,0.00029849240672774613
-3.067371289944276e-05,-9.058130672201514e-07,-0.0001488224370405078
3.34404421664658e-06,3.435964799791691e-06,-0.0005708351964130998
4.3787353206425905e-05,1.9348432033439167e-05,-0.0005638478323817253
7.811657997081056e-05,2.9790760891046375e-05,-0.0002017029473790899
8.793868619250134e-05,1.4690403077111114e-05,9.12916220840998e-05
7.018578617135063e-05,-1.2595443877216894e-05,0.00015557628648821265
3.392195867490955e-05,-2.7783798941527493e-05,0.00012651160068344325
6.664502961939434e-06,-3.2142681448021904e-05,6.651150761172175e-05
3.244943513891485e-07,-3.9143495087046176e-05,-6.25130269327201e-05
4.612355496647069e-06,-4.61252020613756e-05,-0.00019712471112143248
2.4246039174613543e-05,-4.63088508695364e-05,-0.0002543675363995135
5.36711813765578e-05,-4.141754470765591e-05,-0.00020386722462717444
6.377599493134767e-05,-3.367617682670243e-05,-0.00010712225048337132
4.28707899118308e-05,-2.0983583453926258e-05,-3.1073548598214984e-05
1.1495707440190017e-05,5.599003543466097e-06,3.41946906701196e-05
-1.5354447896243073e-05,3.989317701780237e-05,9.462598973186687e-05
-2.6619931304594502e-05,5.7684286730363965e-05,0.00013991176092531532
-2.458856579323765e-05,4.3721956899389625e-05,0.00015790449106134474
-2.939810474344995e-05,1.45565572893247e-05,0.00016271120694000274
-6.101919279899448e-05,2.443330004098243e-06,0.00017047217988874763
-0.0001081090813386254,1.4981316780904308e-05,0.00017662341997493058
-0.00014182231097947806,3.0197172236512415e-05,0.00016202307597268373
-0.0001475290337111801,2.9097542210365646e-05,0.00012477450945880264
-0.00012909824727103114,1.6294867236865684e-05,7.148365693865344e-05
-9.213755402015522e-05,5.1239135245850775e-06,1.0492572982911952e-05
-4.069315400556661e-05,2.66024881057092e-06,-4.52684034826234e-05
4.917090336675756e-06,5.850042725796811e-06,-7.641605770913884e-05
2.2444721253123134e-05,8.409682777710259e-06,-8.56432961882092e-05
1.2647745279537048e-05,1.3213546480983496e-05,-8.386012632399797e-05
-2.9068287403788418e-06,2.0542860511341132e-05,-4.9480389861855656e-05
-8.182581041182857e-06,2.347625922993757e-05,1.3917672731622588e-05
-2.442066943331156e-06,2.0317722373874858e-05,4.894786616205238e-05
-1.970186758626369e-06,1.2199622688058298e-05,-3.3674932637950405e-06
-1.5055730727908667e-05,3.848080723400926e-06,-0.0001042130243149586
-2.289541225763969e-05,1.007977630251844e-06,-0.0001305221812799573
-1.6421185137005523e-05,-2.3702536964265164e-06,-6.973228300921619e-05
-8.686451110406779e-06,-8.71386600920232e-06,3.3706244721543044e-05
-9.08894344320288e-06,-8.19822344055865e-06,0.00012639690248761326
-1.4950556760595646e-05,-3.5230809771746863e-06,0.0001299880095757544
-1.7672091416898184e-05,-5.413146936916746e-06,5.1918046665377915e-05
-1.7499613022664562e-05,-2.4833412680891342e-05,-3.145236405543983e-05
-2.0702926121884957e-05,-5.273577698972076e-05,-4.383252598927356e-05
-2.4228069378295913e-05,-5.783596134278923e-05,3.653849853435531e-05
-1.2018869711027946e-05,-3.7851590604986995e-05,0.00015634455485269427
1.2833813343604561e-05,-1.538234755571466e-05,0.00023803753720130771
3.07011760014575e-05,6.2610033637611195e-06,0.00025842085597105324
3.663656389107928e-05,3.942074181395583e-05,0.00023755591246299446
4.3429568904684857e-05,7.612783520016819e-05,0.00021839933469891548
5.884480196982622e-05,9.196913742925972e-05,0.00020421175577212125
7.978144276421517e-05,7.642755372216925e-05,0.00015986703510861844
9.983338532038033e-05,4.7043635277077556e-05,0.00011090936459368095
0.00010420155012980103,2.554215279815253e-05,0.00011927392915822566
8.365958638023585e-05,1.434532805433264e-05,0.00015818251995369792
4.769203223986551e-05,5.197752216190565e-06,0.00014609085337724537
1.5190521480690222e-05,-3.676547066788771e-06,6.489937368314713e-05
-3.11708458866633e-06,-9.401927854923997e-06,-3.087751611019485e-05
-1.133298837885377e-06,-1.4586284123652149e-05,-8.683068153914064e-05
6.952208877919475e-06,-2.3281019821297377e-05,-9.851061622612178e-05
1.5478739214813686e-06,-3.1472634873352945e-05,-7.53809799789451e-05
-8.821164556138683e-06,-3.598937109927647e-05,-2.9502656616386957e-05
-4.429434284247691e-06,-3.7347290344769135e-05,7.790111340000294e-06
1.6687319657648914e-05,-3.940011083614081e-05,-2.4953613319667056e-05
2.3148020773078315e-05,-4.722773883258924e-05,-9.407446486875415e-05
5.803302883577999e-06,-4.875320155406371e-05,-0.00012620612687896937
-6.958817948543583e-07,-3.619899871409871e-05,-0.00014074399950914085
1.2007586519757751e-05,-2.5190603992086835e-05,-0.00016275614325422794
2.473164386174176e-05,-2.205408782174345e-05,-0.00018679528147913516
3.0554023396689445e-05,-1.6266878446913324e-05,-0.00019033979333471507
2.9364138754317537e-05,-7.032490429992322e-06,-0.0001457694888813421
2.361749102419708e-05,6.307448074949207e-07,-5.048388629802503e-05
1.6098818377940916e-05,4.531937520368956e-06,4.8867575969779864e-05
2.3331208467425313e-06,5.175548267288832e-06,0.0001330523082287982
-2.032175507338252e-05,4.092813924216898e-06,0.00019371288362890482
-4.5017688535153866e-05,-2.716308529215894e-07,0.00016635563224554062
-5.491838601301424e-05,-6.657729045400629e-06,2.6763338610180654e-05
-5.1363120292080566e-05,-9.390416380483657e-06,-0.00012036469706799835
-4.687095861299895e-05,-1.2803029676433653e-05,-0.00017200464208144695
-3.747359733097255e-05,-2.9972969059599563e-05,-0.00016423519991803914
-1.6685504306224175e-05,-5.5388645705534145e-05,-0.00019084442465100437
7.04725835021236e-06,-6.832189683336765e-05,-0.0002616057463455945
2.2119875211501494e-05,-6.665842374786735e-05,-0.0002905396104324609
2.341175604669843e-05,-6.140388722997159e-05,-0.00022301073477137834
1.726707341731526e-05,-5.176185368327424e-05,-0.0001316915440838784
1.543525286251679e-05,-3.054210901609622e-05,-9.507095819571987e-05
1.4459802514465991e-05,-2.52661243393959e-06,-1.2468606655602343e-05
1.2169630281277932e-05,2.4535691409255378e-05,0.0002088150940835476
1.6371763194911182e-05,3.694229235406965e-05,0.00046484568156301975
2.752695399976801e-05,2.826780291798059e-05,0.0006279536755755544
3.297865987406112e-05,1.5480596630368382e-05,0.0006407946348190308
3.215026299585588e-05,1.0492965884623118e-05,0.0005466738948598504
3.309369640192017e-05,1.3142506759322714e-05,0.00040174598689191043
3.203306550858542e-05,2.420872806396801e-05,0.00016036532178986818
3.044912409677636e-05,3.682699389173649e-05,-0.00019122134835924953
2.8706383091048338e-05,3.392256985534914e-05,-0.000498369277920574
1.8511123926145956e-05,1.7071071852114983e-05,-0.0005228346562944353
1.7275732488997164e-06,4.0099143916449975e-06,-0.00034119869815185666
-9.184025657305028e-06,9.368235623696819e-06,-0.0002214870328316465
-1.0251219464407768e-05,2.3579239496029913e-05,-0.00020993956422898918
-4.6281911636469886e-06,2.6012379748863168e-05,-0.00017740155453793705
4.248472123435931e-06,1.1635926966846455e-05,-7.009862747509032e-05
1.1677954717015382e-05,-3.0460937523457687e-06,3.3263437217101455e-05
1.3057504475000314e-05,-8.48737545311451e-06,6.635559111600742e-05
4.642209205485415e-06,-1.1307808563287836e-05,3.6262972571421415e-05
-8.253331543528475e-06,-1.4543064025929198e-05,-4.943613021168858e-06
-1.6613152183708735e-05,-1.5652381989639252e-05,-1.8894135791924782e-05
-1.3047363609075546e-05,-1.07642263174057e-05,1.3199786735640373e-05
5.0943626774824224e-06,-1.9596309357439168e-06,0.00010287533950759098
2.9080421882099472e-05,-9.68697463576973e-07,0.00021292360906954855
3.3509644708829e-05,-2.076077180390712e-05,0.00017761599156074226
1.0185050996369682e-05,-4.5404307456919923e-05,-7.743365131318569e-05
-1.6404981579398736e-05,-4.3422955059213564e-05,-0.00032247710623778403
-3.3371165045537055e-05,-6.8566946538339835e-06,-0.0003111845871899277
-3.862830271827988e-05,3.42793355230242e-05,-0.00012199327466078103
-2.6429870558786206e-05,5.417251304606907e-05,6.4184328039118554e-06
-9.98752784653334e-06,4.6568817197112367e-05,9.388608305016533e-06
-1.0494566595298238e-05,2.3669630536460318e-05,-3.07563241221942e-05
-2.652917282830458e-05,1.0819694580277428e-05,-4.743675890495069e-05
-3.939710950362496e-05,1.3742336705035996e-05,-2.420720375084784e-05
-3.6909124901285395e-05,1.2729377885989379e-05,1.4903811461408623e-05
-2.060083716060035e-05,-1.1007692592102103e-05,5.630767554976046e-05
-2.3457678253180347e-06,-4.494252789299935e-05,0.00010325371840735897
5.618306659016525e-06,-6.249655416468158e-05,0.00014005591219756752
6.9845605139562394e-06,-5.556991891353391e-05,0.00014160493446979672
1.3100698197376914e-05,-3.2950825698208064e-05,0.00011454728519311175
2.4522514650016092e-05,-9.740465429786127e-06,7.397403533104807e-05
3.4993146982742473e-05,-2.1783573629363673e-06,-1.1546148016350344e-05
3.378298060852103e-05,-8.678924132254906e-06,-0.00016452693671453744
2.136300281563308e-05,-1.76965186255984e-05,-0.00031040405156090856
8.680996870680247e-06,-2.1385090803960338e-05,-0.0003569188993424177
-3.0850260372972116e-06,-1.7649130313657224e-05,-0.0003066235512960702
-2.3206084733828902e-05,-4.433898538991343e-06,-0.00022261813865043223
-4.865583832724951e-05,2.2008956875652075e-05,-0.00011931604240089655
-6.111315451562405e-05,5.5460433941334486e-05,2.6500718377064914e-05
-5.401005546445958e-05,8.040759712457657e-05,0.00019542151130735874
-3.3482770959381014e-05,8.474808419123292e-05,0.00034967015380971134
-1.1465169336588588e-05,6.91363457008265e-05,0.00046300425310619175
-2.095236368404585e-06,4.425548831932247e-05,0.0005468980525620282
-6.917865448485827e-06,2.4509236027370207e-05,0.0006251696031540632
-1.3691264939552639e-05,1.755692392180208e-05,0.0006412712391465902
-1.4199054930941202e-05,1.887938560685143e-05,0.0005412735044956207
-6.216976544237696e-06,2.1850701159564778e-05,0.00038947013672441244
-7.522045507357689e-06,2.8156769985798746e-05,0.00021886269678361714
-3.131376797682606e-05,3.2518786611035466e-05,7.344035839196295e-05
-5.083479845779948e-05,2.901081279560458e-05,-1.572503060742747e-05
-4.70381673949305e-05,2.1447644030558877e-05,-6.611687422264367e-05
-2.8731523343594745e-05,1.2001733921351843e-05,-9.106152720050886e-05
-4.261153662810102e-06,2.2719843855156796e-06,-0.00012157035962445661
2.4438468244625255e-05,-1.0523458513489459e-05,-0.00013821761240251362
5.1887138397432864e-05,-2.7221763957641087e-05,-0.0001395090075675398
6.345152360154316e-05,-3.973483762820251e-05,-0.00012106237409170717
5.6816574215190485e-05,-4.069348142365925e-05,-8.61653606989421e-05
3.998654574388638e-05,-3.3330095902783796e-05,-5.950983540969901e-05
2.4608169042039663e-05,-2.8137828849139623e-05,-6.0922982811462134e-05
1.3135902008798439e-05,-2.975693678308744e-05,-7.291479414561763e-05
-4.958837052981835e-06,-3.4654240153031424e-05,-6.960505561437458e-05
-3.511509203235619e-05,-3.557414675015025e-05,-5.292752030072734e-05
-6.209394632605836e-05,-2.489848338882439e-05,-3.496803401503712e-05
-7.199284300440922e-05,-1.6362498627131572e-06,-2.361167389608454e-05
-6.83976904838346e-05,2.1444689991767518e-05,-1.2730915841530077e-05
-5.954937296337448e-05,3.2689036743249744e-05,2.292656972713303e-06
-4.8846322897588834e-05,3.358618778293021e-05,2.537390355428215e-05
-3.562353958841413e-05,2.5824685508268885e-05,4.288362106308341e-05
-2.000689710257575e-05,1.0964163266180549e-05,6.901920278323814e-05
2.3850031993788434e-07,-3.6401197576196864e-06,0.00013613318151328713
2.0327241145423613e-05,-1.5218198313959874e-05,0.00020738174498546869
2.6996502128895372e-05,-2.4976478016469628e-05,0.0002161474694730714
2.0445486370590515e-05,-2.6345202059019357e-05,0.00017555570229887962
1.4267031474446412e-05,-1.7942955309990793e-05,0.00010323173773940653
1.218802481162129e-05,-9.524430424789898e-06,2.5583534807083197e-05
8.742327736399602e-06,-6.186850441736169e-06,-2.3125570805859752e-05
4.378142421046505e-06,-8.950686606112868e-06,-5.5234046158147976e-05
3.5616487821243936e-06,-1.4471773283730727e-05,-9.631481225369498e-05
7.622631983394967e-06,-1.4656777238997165e-05,-0.00016044107906054705
2.385059997322969e-05,-1.663502371229697e-05,-0.00024110371305141598
3.499954618746415e-05,-2.4452443540212698e-05,-0.0002867777366191149
2.5916473532561213e-05,-2.5278564862674102e-05,-0.00024345266865566373
8.54771315061953e-06,-1.967137177416589e-05,-0.0001428383548045531
4.299800821172539e-06,-1.7992668290389702e-05,-6.46483531454578e-05
1.2832454558520112e-05,-2.4162511181202717e-05,-1.855993650679011e-05
1.849263753683772e-05,-3.530673711793497e-05,2.587181552371476e-05
1.5784631614224054e-05,-4.5196731662144884e-05,6.0319023759802803e-05
9.676239642431028e-06,-4.408555832924321e-05,8.927267481340095e-05
3.173650384269422e-06,-2.708612009882927e-05,0.00015675261965952814
-3.2004297736420995e-06,-3.0969295039540157e-06,0.0002480927505530417
4.897050303043216e-07,1.640580376260914e-05,0.00028257115627638996
2.121861143677961e-05,3.003968595294282e-05,0.00023837288608774543
5.2342715207487345e-05,4.042766158818267e-05,0.00013050888082943857
7.952855958137661e-05,5.04149793414399e-05,-7.242438005050644e-05
8.892747428035364e-05,6.836423563072458e-05,-0.0003267162828706205
7.009846740402281e-05,8.844358671922237e-05,-0.0004005559312645346
5.339017297956161e-05,9.379231050843373e-05,-0.0001932654995471239
7.820031169103459e-05,8.16992178442888e-05,6.63911341689527e-05
0.0001057350673363544,5.289230102789588e-05,0.00016193930059671402
7.26571015547961e-05,1.1430652193666901e-05,0.00010528761777095497
9.390695595357101e-06,-2.0407895135576837e-05,6.340543677652022e-06
-1.935163527377881e-05,-2.159349423891399e-05,-4.70885461254511e-05
2.0499887796177063e-06,-2.8761385237885406e-06,-2.370220681768842e-05
2.5072053176700138e-05,1.0595962521620095e-05,2.5591885787434876e-05
1.0457690223120153e-05,1.1388261555111967e-05,3.9628033846383914e-05
-2.8568229026859626e-05,3.255175897720619e-06,3.2078107324196026e-05
-6.152753485366702e-05,-7.898460353317205e-06,2.9182076104916632e-05
-7.109464786481112e-05,-1.8918744899565354e-05,2.5946063033188693e-05
-7.006165833445266e-05,-2.6721034373622388e-05,-2.1709097381972242e-06
-6.743089761584997e-05,-2.896012483688537e-05,-4.6274933993117884e-05
-7.125006231945008e-05,-2.4972730898298323e-05,-9.091393440030515e-05
-7.403952622553334e-05,-1.8547098079579882e-05,-0.00010652306082192808
-6.119952740846202e-05,-1.611814514035359e-05,-6.575807492481545e-05
-3.986422234447673e-05,-2.0918767404509708e-05,-6.758180575161532e-07
-2.3946604414959438e-05,-3.005651342391502e-05,6.989403118495829e-06
-9.993856110668276e-06,-3.847598418360576e-05,-6.223410309758037e-05
6.349017894535791e-06,-4.5044060243526474e-05,-0.00011684605124173686
1.0964762623189017e-05,-4.2776839109137654e-05,-9.338201925856993e-05
-3.833786649920512e-06,-2.394388684479054e-05,5.046168098488124e-06
-2.8026797735947184e-05,3.678740085888421e-06,0.0001512691960670054
-4.59978255094029e-05,2.064334330498241e-05,0.00022067817917559296
-4.083018211531453e-05,2.054118158412166e-05,1.2215552487759851e-05
-4.391559286887059e-06,1.694497768767178e-05,-0.0004314139951020479
2.916379162343219e-05,1.944569703482557e-05,-0.0007254686788655818
1.4470308997260872e-05,2.2024052668712102e-05,-0.0005616522976197302
-2.452100125083234e-05,1.9715153030119836e-05,-0.00010348069918109104
-3.0289529604488052e-05,1.487624194851378e-05,0.00025124894455075264
1.12385748707311e-07,1.2491334928199649e-05,0.00036795917549170554
3.224012107239105e-05,2.557483094278723e-05,0.00035696630948223174
3.229510548408143e-05,4.3894804548472166e-05,0.00030702920048497617
1.3159506124793552e-05,3.599810224841349e-05,0.00027995347045361996
5.775824774900684e-06,1.2847927791881375e-05,0.0002943593717645854
1.36004973683157e-05,2.407639954071783e-08,0.00033656982122920454
2.0793144358322024e-05,-1.6609877775408677e-06,0.0003649727441370487
1.396584320900729e-05,-3.6855003600066993e-06,0.0003322044212836772
9.342792509414721e-06,-9.164175935438834e-06,0.00023758546740282327
9.43191389524145e-06,-1.4609684512834065e-05,0.00013897880853619426
3.556839601515094e-06,-1.3482545909937471e-05,9.263303218176588e-05
-6.36964477962465e-06,-4.6564650801883545e-06,7.910612475825474e-05
-2.90849243356206e-06,2.5756648938113358e-06,5.676341606886126e-05
1.3824153938912787e-05,2.1972518879920244e-06,1.5155136679823045e-05
2.4322029275936075e-05,-1.78586742549669e-06,-2.4407016098848544e-05
2.2235471988096833e-05,2.3130533008952625e-06,-5.0214963266626e-05
1.487726331106387e-05,1.3412661246547941e-05,-6.620843487326056e-05
8.624086149211507e-06,1.7195052350871265e-05,-8.368506678380072e-05
5.898029939999105e-06,4.728568001155509e-06,-0.00010158447548747063
8.611102202848997e-06,-1.6271897038677707e-05,-0.0001139999003498815
1.299959058087552e-05,-3.2158153771888465e-05,-0.0001114805563702248
1.3011956980335526e-05,-3.3848071325337514e-05,-8.509806502843276e-05
5.070008683105698e-06,-2.037568629020825e-05,-3.646383265731856e-05
-3.1449867492483463e-06,2.7970445444225334e-06,1.7211144950124435e-05
-3.228427431167802e-06,2.2190946765476838e-05,5.788845373899676e-05
4.836983862333e-06,2.6967858502757736e-05,7.586739957332611e-05
-3.8798543755547144e-07,1.847337443905417e-05,4.549773802864365e-05
-2.7726078769774176e-05,2.852965963029419e-06,-4.026837632409297e-05
-5.272594353300519e-05,-7.3998476182168815e-06,-0.00016692859935574234
-5.793206219095737e-05,-7.51916729768709e-07,-0.0002676206349860877
-5.445235365186818e-05,4.785570581589127e-06,-0.00028978005866520107
-5.5551427067257464e-05,5.603038971457863e-06,-0.00024896764080040157
-4.987204010831192e-05,8.807355698081665e-06,-0.00016314914682880044
-2.5213232220266946e-05,4.6796117203484755e-06,-6.264226976782084e-05
1.5381805496872403e-05,-3.308684199510026e-06,4.788312071468681e-05
5.0330902013229206e-05,-5.934186901868088e-06,0.0001257893309229985
7.076214387780055e-05,-5.680691174347885e-06,0.00015036779223009944
8.37441548355855e-05,-1.0107754860655405e-05,0.00016518465417902917
8.998635166790336e-05,-1.52894153870875e-05,0.00020488440350163728
8.724884537514299e-05,-2.0649631551350467e-05,0.00023790734121575952
6.92373578203842e-05,-2.2499771148432046e-05,0.00023621534637641162
3.470164301688783e-05,-1.9441986296442337e-05,0.00023137385142035782
-4.8369288379035424e-06,-1.649086880206596e-05,0.0002507439348846674
-3.509583984850906e-05,-1.7675138224149123e-05,0.00028549961280077696
-5.101471106172539e-05,-2.0477700672927313e-05,0.0002985265455208719
-5.279661127133295e-05,-2.0911784304189496e-05,0.00028718222165480256
-4.439061012817547e-05,-1.7500287867733277e-05,0.000267866620561108
-3.2398489565821365e-05,-1.3198427950555924e-05,0.00023590594355482608
-1.687994517851621e-05,-1.600381983735133e-05,0.00015358728705905378
6.026778009982081e-06,-2.564870192145463e-05,1.6194362615351565e-05
2.6991816412191838e-05,-3.258287688368e-05,-0.00011002630344592035
4.63039759779349e-05,-3.2813262805575505e-05,-0.00014539893891196698
7.005092629697174e-05,-2.9656788683496416e-05,-0.00010390402167104185
8.092225471045822e-05,-2.4224837034125812e-05,-8.737732423469424e-05
5.592578600044362e-05,-2.350480826862622e-05,-0.00022037765302229673
1.3702307114726864e-05,-1.693156264082063e-05,-0.0005267901578918099
2.568541503933375e-07,6.549844329128973e-06,-0.0006762440898455679
1.0713870324252639e-05,3.093441773671657e-05,-0.0004267764452379197
1.1474735401861835e-05,4.749405707116239e-05,-4.901188731309958e-05
-1.2040721230732743e-05,5.468158997246064e-05,9.78510724962689e-05
-4.6651341108372435e-05,4.5891330955782905e-05,-3.687410207930952e-05
-6.704192492179573e-05,2.859506093955133e-05,-0.00020000970107503235
-6.552156992256641e-05,2.4820405087666586e-05,-0.00022565315885003656
-5.729938857257366e-05,3.8210135244298726e-05,-0.00011243593326071277
-5.9424277424113825e-05,4.5110533392289653e-05,1.2083311958122067e-05
-6.672106246696785e-05,3.316251968499273e-05,6.484245386673138e-05
-7.091357110766694e-05,1.1831611118395813e-05,6.178070179885253e-05
-6.860047142254189e-05,-6.767930699425051e-06,7.481130887754261e-05
-5.5926731874933466e-05,-1.9216253349441104e-05,0.0001578601950313896
-2.7944624889642e-05,-2.742749529716093e-05,0.0002551401557866484
7.7003924161545e-06,-3.268696673330851e-05,0.00025623265537433326
3.389273479115218e-05,-3.870903674396686e-05,0.0001390809629810974
4.4811728002969176e-05,-4.95738786412403e-05,2.07477314688731e-05
4.322422682889737e-05,-5.802805389976129e-05,-1.4350265701068565e-05
2.6253617761540227e-05,-4.960748992743902e-05,2.766452234936878e-05
-7.047149665595498e-06,-2.9893919418100268e-05,8.228897786466405e-05
-4.4526874262373894e-05,-2.344542372156866e-05,0.00011081049888161942
-6.577146996278316e-05,-3.7953777791699395e-05,8.251930557889864e-05
-4.951307346345857e-05,-5.0287184421904385e-05,1.6427116861450486e-05
-1.9711689674295485e-05,-3.046823439945001e-05,-5.394576146500185e-05
-2.5384313630638644e-05,1.9084487576037645e-05,-9.194685117108747e-05
-5.618941577267833e-05,6.658295751549304e-05,-6.859209679532796e-05
-6.116389704402536e-05,9.666052937973291e-05,3.722296605701558e-05
-3.2789357646834105e-05,9.676489571575075e-05,0.00010531498264754191
-4.050993538839975e-06,7.070097490213811e-05,7.491305586881936e-05
6.8407093749556225e-06,4.068438647664152e-05,2.641410355863627e-05
6.368990398186725e-06,1.8248929336550646e-05,6.291781119216466e-06
1.676269130257424e-05,9.222833796229679e-06,1.0989669135597069e-05
3.851445217151195e-05,1.3621106518257875e-05,1.0672591088223271e-05
5.0515212933532894e-05,2.727187347772997e-05,7.780296982673462e-06
4.8423680709674954e-05,3.2648793421685696e-05,1.856759126894758e-06
3.9826751162763685e-05,2.4553952243877575e-05,-8.74568195285974e-06
3.130625918856822e-05,7.980563168530352e-06,-2.2120339053799398e-05
2.6726187570602633e-05,-8.339510713994969e-06,-2.3483109544031322e-05
2.8497457606135868e-05,-2.0280089302104898e-05,-1.2822030839743093e-05
3.336977169965394e-05,-2.774750828393735e-05,-5.391469048987574e-09
3.852793452097103e-05,-3.037467467947863e-05,7.79103265813319e-06
4.00723802158609e-05,-2.7705267712008208e-05,1.1998317859251983e-05
3.594677400542423e-05,-2.2571543013327755e-05,1.3225134352978785e-05
3.083072806475684e-05,-1.995619277295191e-05,1.6797224816400558e-05
2.7096673875348642e-05,-1.6270561900455505e-05,2.5051993361557834e-05
1.70717466971837e-05,-9.098896953219082e-06,2.6023124519269913e-05
-4.065009022724553e-07,-7.177421139203943e-06,3.1848605431150645e-05
-1.8435304809827358e-05,-1.2988591151952278e-05,9.379217226523906e-05
-3.4844724723370746e-05,-8.16520241642138e-06,0.00017738369933795184
-4.3055413698311895e-05,1.3306033906701487e-05,0.0001859876065282151
-2.8053154892404564e-05,3.653260864666663e-05,0.00010100558574777097
1.1255262506892905e-05,4.828641249332577e-05,2.124729144270532e-05
4.460008494788781e-05,4.4634674850385636e-05,4.4115015043644235e-05
6.355258665280417e-05,2.1511792510864325e-05,6.028099232935347e-05
8.13823426142335e-05,-3.356631850692793e-06,-0.00014139965060167015
9.881347068585455e-05,-2.3801843781257048e-05,-0.00043794349767267704
0.0001150610696640797,-4.58505965070799e-05,-0.0004610418400261551
0.0001149968957179226,-5.495093500940129e-05,-0.0001571738685015589
8.836387132760137e-05,-5.709080505766906e-05,0.00017453491454944015
4.745318437926471e-05,-7.213593926280737e-05,0.0002981669967994094
9.040811164595652e-06,-9.029839566210285e-05,0.0002713844587560743
-2.4598644813522696e-05,-9.202149522025138e-05,0.00023088396119419485
-5.125545430928469e-05,-7.161135727073997e-05,0.00022403332695830613
-6.993833812884986e-05,-4.201827687211335e-05,0.00020949257304891944
-8.19518681964837e-05,-2.0990170014556497e-05,0.00014415336772799492
-7.632148481206968e-05,-1.5056983102113008e-05,4.5745036914013326e-05
-5.303356010699645e-05,-1.3430500075628515e-05,-3.7069592508487403e-05
-3.086360447923653e-05,-3.4830538879759843e-06,-7.405848009511828e-05
-2.850503005902283e-05,1.5532701581832953e-05,-7.740459113847464e-05
-4.174579225946218e-05,3.797595854848623e-05,-7.475107122445479e-05
-5.4987318435451016e-05,5.362215233617462e-05,-9.31878385017626e-05
-5.420475281425752e-05,6.054834011592902e-05,-0.0001203888314194046
-3.6588593502528965e-05,6.652744195889682e-05,-0.00012708385474979877
-8.541483111912385e-06,7.472931611118838e-05,-0.00010975175246130675
2.4111170205287635e-05,7.37200170988217e-05,-9.623174992157146e-05
5.0223738071508706e-05,5.932885324000381e-05,-8.541568968212232e-05
6.080819002818316e-05,3.783570718951523e-05,-5.8357720263302326e-05
5.064458673587069e-05,1.3321648111741524e-05,-2.137405135727022e-05
1.098163647839101e-05,-8.380363397009205e-06,1.0061982720799278e-05
-3.750008181668818e-05,-1.650963349675294e-05,4.406107836985029e-05
-5.877466173842549e-05,-1.2667724149650894e-05,0.00010550433216849342
-4.712920053862035e-05,-1.2142852028773632e-05,0.0001869124243967235
-2.97540955216391e-05,-2.069197580567561e-05,0.00026504509150981903
-2.6983987481798977e-05,-3.0371575121534988e-05,0.0003207755507901311
-3.6241395719116554e-05,-3.1707164453109726e-05,0.0003052186220884323
-4.967123459209688e-05,-1.8696713596000336e-05,0.0002027456503128633
-5.2253399189794436e-05,3.2533646390220383e-06,3.522727274685167e-05
-3.5453151213005185e-05,2.6070472813444212e-05,-0.00012338819215074182
-5.460874035634333e-06,3.8719630538253114e-05,-0.00017101514094974846
1.5735373381176032e-05,3.3919659472303465e-05,-9.335763024864718e-05
1.240385518030962e-05,1.988297481148038e-05,1.4578686204913538e-05
-6.518221653095679e-06,1.0271454812027514e-05,6.186775863170624e-05
-2.0988280084566213e-05,4.071106104674982e-06,4.2442483390914276e-05
-2.339031379960943e-05,-1.1818900929938536e-05,-3.1444676551473094e-06
-1.4402928172785323e-05,-3.763888526009396e-05,-2.764749660855159e-05
1.3189974197302945e-06,-5.7003220717888325e-05,-6.163893431221368e-06
1.526884807390161e-05,-6.148144893813878e-05,5.045464786235243e-05
2.3898854124126956e-05,-5.807183333672583e-05,8.5978586866986e-05
2.448935447318945e-05,-5.1128779887221754e-05,2.467949889251031e-05
1.0276601642544847e-05,-4.029890988022089e-05,-0.00017743791977409273
-1.6099209460662678e-05,-2.6078065275214612e-05,-0.0004011246783193201
-3.355854641995393e-05,-8.601080480730161e-06,-0.00040489539969712496
-2.572379344201181e-05,1.2161789527453948e-05,-0.00016031374980229884
-2.1302447805737756e-07,3.350157930981368e-05,5.789768329123035e-05
2.001622851821594e-05,5.615420377580449e-05,8.645736670587212e-05
2.9301721951924264e-05,6.956173456273973e-05,4.334956975071691e-05
4.5962195144966245e-05,6.163286161608994e-05,2.452336048008874e-05
6.20922219241038e-05,3.925097189494409e-05,-7.18581723049283e-05
3.37079654855188e-05,1.7324202417512424e-05,-0.00023240488371811807
-1.425396931153955e-05,1.80158031071187e-06,-0.0003130210970994085
-1.8291582819074392e-05,-2.2889314550411655e-06,-0.0002366190165048465
1.246558895218186e-06,3.0436563065450173e-06,-3.7195681215962395e-05
5.802119176223641e-06,5.023630819778191e-06,0.00014396510960068554
5.089240175948362e-07,2.371703500259059e-09,0.00024929014034569263
1.5686813412685296e-06,-5.686687018169323e-06,0.0002686350781004876
1.0309748176950961e-05,-4.986373824067414e-06,0.00023319455794990063
2.12041904887883e-05,6.301419119836282e-08,0.00019018213788513094
2.672171831363812e-05,5.14220801051124e-06,0.00015810636978130788
2.6260475351591595e-05,8.263599738711491e-06,0.00014936680963728577
2.395115552644711e-05,8.607466043031309e-06,0.00018568373343441635
2.0188210328342393e-05,4.442899353307439e-06,0.00025312410434708
1.673205588303972e-05,-3.7729812447651057e-06,0.0002985206665471196
1.549659100419376e-05,-1.5345662177423947e-05,0.00027521420270204544
1.61951502377633e-05,-2.7027816031477414e-05,0.00015360882389359176
1.7213105820701458e-05,-3.218747224309482e-05,-1.0386445865151472e-05
1.83887477760436e-05,-3.431240111240186e-05,-0.00010176259092986584
1.6164356566150673e-05,-3.800873309955932e-05,-7.928230479592457e-05
9.137596862274222e-06,-3.9493559597758576e-05,-3.663714596768841e-05
1.8733485376287717e-06,-3.965575888287276e-05,-5.468169183586724e-05
-3.260175276409427e-07,-3.980878318543546e-05,-0.00010184089478570968
1.9026738300453871e-06,-3.491890674922615e-05,-0.00011451522004790604
2.2177130176714854e-06,-2.9163737053750083e-05,-0.00011664408521028236
-3.016590881088632e-06,-2.909260001615621e-05,-0.00014587643090635538
-7.400038612104254e-06,-3.148326140944846e-05,-0.0001785860804375261
-1.4302588169812225e-05,-3.994760845671408e-05,-0.00020727149967569858
-2.6027859348687343e-05,-5.4867006838321686e-05,-0.0002615149423945695
-2.5943703803932294e-05,-5.529247209778987e-05,-0.00025801360607147217
-1.3825911992171314e-05,-2.7125643100589514e-05,-8.864061965141445e-05
-3.300000344097498e-06,1.5396832168335095e-05,7.54474604036659e-05
1.417964722350007e-05,4.2789273720700294e-05,5.0423732318449765e-05
3.7810885260114446e-05,4.420911136548966e-05,-4.2278668843209743e-05
5.327589315129444e-05,3.75727322534658e-05,1.4307753190223593e-05
4.503430682234466e-05,4.2925596062559634e-05,0.00021850698976777494
1.5131729014683515e-05,6.112894334364682e-05,0.00035695492988452315
-5.374898591981037e-06,8.013390470296144e-05,0.0003370122576598078
7.95840060163755e-06,8.034058555494994e-05,0.0002386268024565652
3.7737096135970205e-05,5.637808862957172e-05,0.00016324661555700004
4.5905955630587414e-05,2.5194585759891197e-05,0.0001483438682043925
2.5300814741058275e-05,2.8023505365126766e-06,0.00016043154755607247
-4.713505859399447e-06,-8.888748197932728e-06,0.00014538891264237463
-2.8682572519755922e-05,-1.539151526230853e-05,7.776835991535336e-05
-4.476463800529018e-05,-2.2665548385703005e-05,-9.63188267633086e-06
-5.669458187185228e-05,-3.252949318266474e-05,-5.584965765592642e-05
-7.335186819545925e-05,-3.308337181806564e-05,-3.385744275874458e-05
-8.958291437011212e-05,-1.345025793852983e-05,3.0758346838410944e-05
-8.4141363913659e-05,1.5569201423204504e-05,0.00010455494339112192
-4.7395689762197435e-05,3.420024586375803e-05,0.00010427495726617053
-9.094241249840707e-06,2.945589949376881e-05,-1.1098110007878859e-05
1.615464952919865e-06,-9.038820962814498e-07,-9.013003000291064e-05
-3.142238938380615e-06,-3.214327080058865e-05,-2.8212200049893e-05
-1.196735684061423e-05,-4.1651277570053935e-05,5.102378418087028e-05
-2.3806011085980572e-05,-2.433644658594858e-05,5.060243347543292e-05
-3.395806561456993e-05,2.9900663776061265e-06,5.793215677840635e-06
-3.966241274611093e-05,1.4188601198839024e-05,-4.0019385778578e-05
-2.633163421705831e-05,6.176776878419332e-06,-8.113036892609671e-05
5.85005227549118e-06,-4.040998646814842e-06,-8.718911703908816e-05
3.4246007999172434e-05,-5.981437993796135e-07,-6.514330743812025e-05
3.759470200748183e-05,9.6254389063688e-06,-6.734710768796504e-05
2.2952017388888635e-05,1.0204626050835941e-05,-0.00010867149103432894
1.0374393241363578e-05,1.9213161976949777e-06,-0.00015676340262871236
5.185680947761284e-06,-1.3940418739366578e-06,-0.0001739594154059887
3.939231646654662e-06,3.440564341872232e-06,-0.0001729741634335369
1.8401242414256558e-06,6.805404609622201e-06,-0.00019438384333625436
-2.0785296328540426e-06,1.508942773398303e-06,-0.00024819077225402
-1.0879301044042222e-05,-7.240351351356367e-06,-0.00026900216471403837
-2.0007577404612675e-05,-9.2318732640706e-06,-0.000191507933777757
-2.4515657059964724e-05,1.8220774791188887e-06,-2.4700708308955655e-05
-2.3570544726680964e-05,1.9177390640834346e-05,0.00015947506472002715
-1.637757486605551e-05,2.912877971539274e-05,0.0002684378414414823
3.597354236717365e-07,2.7200499971513636e-05,0.0002660260652191937
1.3235727237770334e-05,1.9722061551874503e-05,0.0002151288208551705
9.267981113225687e-06,1.540340599603951e-05,0.0001964910188689828
5.921854153712047e-06,1.6161278836079873e-05,0.0002275913575431332
2.5288703909609467e-05,1.6522972146049142e-05,0.0002715882728807628
6.0039757954655215e-05,1.233260627486743e-05,0.000260150438407436
7.903396908659488e-05,5.1490151236066595e-06,0.0001548721338622272
5.47262498002965e-05,6.505624696728773e-06,3.2813099096529186e-05
1.72985401150072e-05,2.3110365873435512e-05,-4.7596249714843e-06
2.2221636754693463e-05,3.5216544347349554e-05,2.8880551326437853e-05
5.167577910469845e-05,2.422218858555425e-05,4.067734334967099e-05
6.711365131195635e-05,3.258688366258866e-06,-1.6531828805455007e-05
6.12311705481261e-05,-1.1547039321158081e-05,-0.0001126627394114621
3.7905218050582334e-05,-1.6382931789848953e-05,-0.00020986639719922096
1.0507950719329529e-05,-6.80969787936192e-06,-0.00026381429051980376
-7.1313593252853025e-06,7.557559911219869e-06,-0.0002453852794133127
-1.039773542288458e-05,1.3534497156797443e-05,-0.0001870495470939204
-9.921577657223679e-06,1.0747653504949994e-05,-0.00012946159404236823
-2.2487536625703797e-05,4.377465302241035e-06,-6.657275662291795e-05
-3.878942152368836e-05,-2.579124156909529e-06,3.2786705560283735e-05
-3.381401256774552e-05,-9.348259482067078e-06,0.00016375182894989848
-1.2483820682973601e-05,-1.3748271157965064e-05,0.0002727098762989044
3.475688345133676e-06,-1.5799581888131797e-05,0.00027077976847067475
1.1713505955412984e-05,-2.0981402485631406e-05,9.86954037216492e-05
2.0146047972957604e-05,-3.1235849746735767e-05,-0.00013489020057022572
2.731061067606788e-05,-4.0811224607750773e-05,-0.00020087520533706993
2.3492446416639723e-05,-4.15636932302732e-05,-4.13767083955463e-05
1.640985942685802e-06,-3.041227137146052e-05,0.00014525749429594725
-3.101960101048462e-05,-1.2197216165077407e-05,0.00017858951468952
-5.4983927839202806e-05,2.245034693260095e-06,8.637357677798718e-05
-5.785131361335516e-05,3.3407634418836096e-06,-6.530161954287905e-06
-4.175763751845807e-05,-3.943784122384386e-06,-4.308485586079769e-05
-2.0387282347655855e-05,-1.2856935427407734e-05,-5.009716915083118e-05
-1.014775534713408e-05,-1.7671854948275723e-05,-6.438868149416521e-05
-1.0283366464136634e-05,-7.918513801996596e-06,-8.702290506334975e-05
-9.891259651340079e-06,9.291773494624067e-06,-9.092987602343783e-05
-1.4768613255000673e-05,2.8583146558958106e-05,-3.512545663397759e-05
-3.488282163743861e-05,4.2447300074854866e-05,0.00010036684398073703
-5.034474452259019e-05,3.818309778580442e-05,0.0002593286335468292
-3.899885268765502e-05,2.3787812096998096e-05,0.00038637485704384744
-1.0354327969253063e-05,8.241715477197431e-06,0.0004180318210273981
1.811143556551542e-05,-6.8946287683502305e-06,0.0002918727695941925
3.448702409514226e-05,-2.2704900402459316e-05,9.821044659474865e-05
3.91042631235905e-05,-2.4986204152810387e-05,-1.821435580495745e-05
3.901156014762819e-05,-1.2133011296100449e-05,-1.3119873074174393e-05
3.089450910920277e-05,-2.3345933186647017e-07,2.5355349862365983e-05
8.507899110554717e-06,-2.3646830413781572e-06,1.7634753021411598e-05
-2.20991532842163e-05,-1.706363218545448e-05,-1.508223795099184e-05
-4.7789835662115365e-05,-3.332345295348205e-05,-1.3759458852291573e-05
-5.7801909861154854e-05,-4.5590164518216625e-05,2.2559570425073616e-05
-5.252513801679015e-05,-4.621090920409188e-05,3.7447138311108574e-05
-4.7174304199870676e-05,-2.9794131478411146e-05,2.626248897286132e-05
-5.29068274772726e-05,-5.725825303670717e-06,2.0316745576565154e-05
-5.967545439489186e-05,8.650922609376721e-07,1.56396836246131e-05
-4.913735392619856e-05,-1.789076668501366e-05,-4.116697255085455e-06
-2.1557685613515787e-05,-4.31085609307047e-05,-3.89132765121758e-05
9.451523510506377e-06,-5.3998006478650495e-05,-0.00012600087211467326
3.6944587918696925e-05,-4.435365190147422e-05,-0.0002523890580050647
5.234413765720092e-05,-1.57066806423245e-05,-0.00029207844636403024
4.336620258982293e-05,1.5455862012458965e-05,-0.00019653049821499735
2.5602108507882804e-05,3.2159816328203306e-05,-8.365462417714298e-05
3.1569965358357877e-05,3.3122374588856474e-05,-4.2057021346408874e-05
5.773403972852975e-05,1.866536695160903e-05,-4.0933999116532505e-05
8.014585182536393e-05,-2.3236527795233997e-06,-2.2607780920225196e-05
7.891308632679284e-05,-1.1502681445563212e-05,3.213701711501926e-05
5.4066193115431815e-05,-3.417625975998817e-06,0.00010341697634430602
2.301210588484537e-05,8.069113391684368e-06,0.00014034371997695416
-3.253072691222769e-06,7.004985945968656e-06,0.0001194821234093979
-2.0493389456532896e-05,1.9136818991682958e-06,0.0001060452705132775
-3.2226977054961026e-05,4.6796599235676695e-06,0.00016693554061930627
-3.666186239570379e-05,1.492378578404896e-05,0.0002649203815963119
-3.407071199035272e-05,1.875099951575976e-05,0.0002926076704170555
-2.5457789888605475e-05,6.042918812454445e-06,0.00019073170551564544
-2.3609143681824207e-05,-9.313393093179911e-06,-9.370114639750682e-06
-2.6673596948967315e-05,-1.6431629774160683e-05,-0.00022507039830088615
-1.7380754798068665e-05,-1.5436835383297876e-05,-0.0003202115767635405
1.5049402463773731e-05,-1.0395712706667837e-05,-0.00019657517259474844
5.5109645472839475e-05,-1.761105636433058e-06,3.8707345083821565e-05
7.53789790906012e-05,7.018350061116507e-06,0.0001742961903801188
7.668318721698597e-05,1.1917832125618588e-05,0.00012077013525413349
7.594623457407579e-05,9.483804205956403e-06,-4.155301212449558e-05
7.67831297707744e-05,-3.2913433187786723e-06,-0.00016929856792557985
6.373030919348821e-05,-2.7322012101649307e-05,-0.0001553633192088455
3.18360653182026e-05,-5.3611078328685835e-05,-2.514764310035389e-05
-8.217649337893818e-06,-6.242680683499202e-05,9.200336353387684e-05
-4.441967394086532e-05,-4.041529246023856e-05,0.0001266119652427733
-6.934925477253273e-05,-4.765395260619698e-06,0.00012743992556352168
-5.874062844668515e-05,1.163871002063388e-05,0.0001575400965521112
-1.2627935575437732e-05,-2.9120087674527895e-07,0.00018450897186994553
2.6423453164170496e-05,-2.4701512302272022e-05,0.00013545963156502694
2.9673476092284545e-05,-3.610781641327776e-05,5.09349456478958e-06
3.2320426726073492e-06,-2.774961649265606e-05,-8.075704681687057e-05
-3.196128091076389e-05,-8.990227797767147e-06,-6.996340380283073e-05
-6.302139081526548e-05,1.5989458916010335e-05,-7.19319359632209e-05
-8.057275408646092e-05,3.651410588645376e-05,-9.503184264758602e-05
-5.496712037711404e-05,4.0437480492983013e-05,-7.026823732303455e-05
-1.9066609979745408e-07,3.245084735681303e-05,2.146174301742576e-05
3.752413977053948e-05,1.9886490917997435e-05,0.00012967549264431
4.6112429117783904e-05,1.3266499991004821e-05,0.0002006824070122093
4.139098382438533e-05,1.607019657967612e-05,0.0001771117385942489
3.9527549233753234e-05,1.3222318557382096e-05,-2.2852234906167723e-05
3.566694795154035e-05,6.976086410759308e-07,-0.00031858490547165275
2.174751898564864e-05,-9.335396498499904e-06,-0.0004552094324026257
8.81446885614423e-06,-5.627275186270708e-06,-0.0003148330724798143
9.284055522584822e-06,8.41769633552758e-06,-5.9572845202637836e-05
1.3579591723100748e-05,2.1322959582903422e-05,0.00011673815606627613
1.3112153283145744e-05,2.8361102522467263e-05,0.0001551403693156317
1.1240585081395693e-05,2.6906791390501894e-05,9.482964378548786e-05
7.040311629680218e-06,1.5505933333770372e-05,1.0433262104925234e-05
-7.98479959485121e-06,-2.0526188393432676e-07,-3.6269088013796136e-05
-2.4337774448213167e-05,-1.3458165994961746e-05,-4.691481444751844e-05
-2.7136755306855775e-05,-2.1509205907932483e-05,-4.8174690164159983e-05
-2.6313660782761872e-05,-2.1556028514169157e-05,-3.9441987610189244e-05
-3.813195144175552e-05,-1.7959884644369595e-05,-1.7530408513266593e-05
-5.393572791945189e-05,-1.3954529094917234e-05,1.1596479453146458e-05
-5.667216100846417e-05,-1.141843677032739e-05,4.084977263119072e-05
-4.71237872261554e-05,-1.2652950317715295e-05,5.322873403201811e-05
-4.449193147593178e-05,-9.690287697594613e-06,3.8792917621321976e-05
-5.2039871661690995e-05,1.4238629546525772e-06,6.540664799103979e-06
-5.093256913824007e-05,9.515075362287462e-06,-2.2574116883333772e-05
-2.795019099721685e-05,6.20348191660014e-06,-3.0965693440521136e-05
3.947558525396744e-06,-7.636101145180874e-06,-2.3074589989846572e-05
2.300457163073588e-05,-2.6802223146660253e-05,-1.5388721294584684e-05
2.7789745217887685e-05,-3.162506618537009e-05,-5.9280655477778055e-06
2.6042596800834872e-05,-1.3764686627837364e-05,8.766461178311147e-06
2.6512383556109853e-05,1.1561409337446094e-05,3.996814939455362e-06
3.040689080080483e-05,2.8290069167269394e-05,-3.141527486150153e-05
2.8937467504874803e-05,2.9122233172529377e-05,-7.442215428454801e-05
2.3711636458756402e-05,1.7332904462818988e-05,-9.119234164245427e-05
2.2432508558267727e-05,8.51863205753034e-06,-7.159636879805475e-05
2.5018640371854417e-05,1.4484056919172872e-05,-2.3789241822669283e-05
2.5139443096122704e-05,2.5584960894775577e-05,3.1422299798578024e-05
2.0653114916058257e-05,2.6577819880913012e-05,7.13870394974947e-05
1.3553872122429311e-05,1.5391189663205296e-05,8.592927770223469e-05
7.473318419215502e-06,-2.5560946141922614e-06,9.147651144303381e-05
6.198763003339991e-06,-2.2658176021650434e-05,0.00011260765313636512
5.529625923372805e-06,-3.528358138282783e-05,0.00015904825704637915
2.4439391381747555e-06,-3.1420073355548084e-05,0.00021751687745563686
-2.74546164291678e-06,-1.9058274119743146e-05,0.00024610833497717977
-4.534885192697402e-06,-1.6135572877828963e-05,0.0002001942484639585
4.250108759151772e-06,-2.2477748643723316e-05,9.754545317264274e-05
5.3394678616314195e-06,-2.0345018128864467e-05,4.133086622459814e-05
-2.292921817570459e-05,2.191446128563257e-06,0.00011936928785871714
-4.8611615056870505e-05,2.6805182642419823e-05,0.0002384239196544513
-3.788419780903496e-05,2.446510552545078e-05,0.00023050514573697
-1.4544247278536204e-05,1.1207011084479745e-05,0.00011297810851829126
-9.872012014966458e-06,1.8682088921195827e-05,7.919145900814328e-06
-1.4320537957246415e-05,3.470704177743755e-05,-2.4577868316555396e-05
-3.918982201867038e-06,3.2521813409402966e-05,-1.7642047168919817e-05
1.73014650499681e-05,8.236680514528416e-06,-3.489767186692916e-05
2.9239397917990573e-05,-1.6846954167704098e-05,-6.838334957137704e-05
2.5599447326385416e-05,-1.9804880139417946e-05,-8.491857443004847e-05
1.4824673598923255e-05,-3.3947426345548593e-06,-8.684842032380402e-05
5.427796168078203e-06,1.4568571714335121e-05,-9.032356319949031e-05
-1.9036822322959779e-06,2.035442776104901e-05,-0.00010513191227801144
-9.353847417514771e-06,1.596720721863676e-05,-0.00011130724305985495
-1.6202384358621202e-05,1.1603259736148175e-05,-8.091022027656436e-05
-1.3299747479322832e-05,1.1492977137095295e-05,4.14043051932822e-06
3.391744030523114e-06,8.26096766104456e-06,0.00012592603161465377
1.595239336893428e-05,-4.6265290620794985e-06,0.00021095371630508453
8.16996271169046e-06,-2.2309470296022482e-05,0.00018419376283418387
-6.926432433829177e-06,-3.400552668608725e-05,5.848907312611118e-05
-1.0363710316596553e-05,-2.9304199415491894e-05,-9.117357694776729e-05
-3.5348039091331884e-06,-1.0847978956007864e-05,-0.00020784823573194444
3.983443264132802e-07,3.845967057714006e-06,-0.00026840600185096264
-8.149048881023191e-06,-1.8355588160545722e-09,-0.0002637703437358141
-2.063179090328049e-05,-1.3417546142591164e-05,-0.00020070325990673155
-1.5058734788908623e-05,-1.5835170415812172e-05,-9.996932203648612e-05
-1.2554284012367134e-06,-7.553008799732197e-06,-7.515210199926514e-06
-9.783707355381921e-06,5.533785042644013e-06,4.303395689930767e-05
-2.715365553740412e-05,2.0821635189349763e-05,7.190617907326669e-05
-1.4690564057673328e-05,3.3012154744938016e-05,9.902429155772552e-05
1.9499091649777256e-05,3.7702535337302834e-05,0.0001238946133526042
4.787074794876389e-05,3.2597556128166616e-05,0.0001285803591599688
6.389950431184843e-05,2.447052247589454e-05,0.00012315597268752754
6.468428910011426e-05,2.2403519324143417e-05,0.00011081275442847982
5.40428954991512e-05,1.8729349903878756e-05,8.54406607686542e-05
3.6708119296235964e-05,8.11228255770402e-06,7.7458331361413e-05
2.3032309400150552e-05,2.7929847874474945e-06,9.729406156111509e-05
1.6732090443838388e-05,4.648522008210421e-06,0.0001244772574864328
1.4457568795478437e-05,4.664590960601345e-06,0.00015967723447829485
7.6014994192519225e-06,-6.490882242360385e-06,0.00017887094873003662
-7.792609721946064e-06,-1.8506982087274082e-05,0.00015542963228654116
-2.1772033505840227e-05,-2.0411824152688496e-05,8.845582487992942e-05
-2.0339819457149133e-05,-1.9306475223856978e-05,-3.891699816449545e-05
-6.189521172927925e-06,-2.8821241357945837e-05,-0.0001847722742240876
-2.563649331932538e-06,-4.5093544031260535e-05,-0.0002471302286721766
-1.7998696421273053e-05,-5.326319660525769e-05,-0.00019060642807744443
-3.8806952943559736e-05,-4.900597923551686e-05,-6.86085331835784e-05
-5.1963790610898286e-05,-3.8657271943520755e-05,6.884649337735027e-05
-5.869928281754255e-05,-3.182579530403018e-05,0.00015531267854385078
-6.206143734743819e-05,-2.919476719398517e-05,0.0001147919028881006
-6.774386565666646e-05,-2.3181672077043913e-05,-1.5526511560892686e-05
-7.795690180500969e-05,-1.0922064575424884e-05,-8.459984383080155e-05
-8.274887659354135e-05,-1.8369734107182012e-06,-2.595947626105044e-05
-6.693162868032232e-05,6.379201295203529e-06,6.6671591412159614e-06
-3.650640428531915e-05,3.0391194741241634e-05,-0.00013984835823066533
-8.593501661380287e-06,7.497255865018815e-05,-0.00036216192529536784
1.9867233277182095e-05,0.0001155299978563562,-0.00047638145042583346
6.011237564962357e-05,0.00012200482888147235,-0.0004512853338383138
0.000101927034847904,9.842517465585843e-05,-0.0003647592384368181
0.00010833051783265546,6.826526805525646e-05,-0.00021478364942595363
8.357914339285344e-05,4.038367114844732e-05,1.0156346434087027e-05
6.724410195602104e-05,1.3088935702398885e-05,0.0002190040540881455
6.059823863324709e-05,-1.6224254068220034e-05,0.00034585915273055434
4.825795258511789e-05,-3.239603393012658e-05,0.00039991625817492604
2.4000280973268673e-05,-1.994677586480975e-05,0.00042617099825292826
-7.499505045416299e-06,1.4458951227425132e-05,0.000447531376266852
-3.469478906481527e-05,4.153512782067992e-05,0.0004501888179220259
-4.16608527302742e-05,4.7450754209421575e-05,0.0004077850026078522
-2.4564109480706975e-05,3.940213719033636e-05,0.0003470931842457503
8.336117502949492e-07,2.7326452254783362e-05,0.0003070860111620277
1.3131304513080977e-05,1.6480178601341322e-05,0.00029207326588220894
8.412880561081693e-06,5.692577815352706e-06,0.00026612417423166335
9.694841764940065e-07,-5.657394922309322e-06,0.00015966374485287815
7.93175104263355e-07,-1.513411189080216e-05,-7.495607860619202e-05
5.156579391041305e-06,-1.990260170714464e-05,-0.00036034107324667275
5.522422270587413e-06,-2.3843538656365126e-05,-0.0005093335639685392
5.281950052449247e-06,-2.6166384486714378e-05,-0.0004285128670744598
1.203771353175398e-05,-2.1825897420058027e-05,-0.0002403937978670001
2.422717079753056e-05,-1.9651919501484372e-05,-0.00012013888044748455
3.939591260859743e-05,-3.200714127160609e-05,-9.104045602725819e-05
5.6527580454712734e-05,-4.269831333658658e-05,-8.563938172301278e-05
6.969420064706355e-05,-4.089093272341415e-05,-6.514062988571823e-05
7.242688297992572e-05,-3.539979297784157e-05,-4.235495725879446e-05
5.096041059005074e-05,-3.45404987456277e-05,-4.0616196201881394e-05
1.6183801562874578e-05,-4.3460793676786125e-05,-5.388659701566212e-05
-7.818169251549989e-06,-5.6861244956962764e-05,-5.557447366300039e-05
-2.275429869769141e-05,-5.622944445349276e-05,-4.6184879465727136e-05
-4.334667755756527e-05,-4.1207094909623265e-05,-2.767632577160839e-05
-5.972230064799078e-05,-2.123367812600918e-05,2.8531364932860015e-06
-5.75980702706147e-05,-2.0661711914726766e-06,5.129977216711268e-05
-4.6769389882683754e-05,1.001282362267375e-05,9.946086356649175e-05
-3.379859117558226e-05,1.337783851340646e-05,0.00012114407581975684
-2.2311913198791444e-05,1.5882022125879303e-05,0.00012822194548789412
-2.0341827621450648e-05,2.0661034795921296e-05,0.00013407113146968186
-2.596463127702009e-05,2.078862235066481e-05,0.0001429211552022025
-2.0445140762603842e-05,1.203078863909468e-05,0.0001469035050831735
4.3913553327001864e-07,3.816479875240475e-06,0.00013724113523494452
2.0600276911864057e-05,5.167076778889168e-06,0.00011445896234363317
2.3225476979860105e-05,1.31102324303356e-05,9.476091508986428e-05
9.917760507960338e-06,2.34025592362741e-05,0.00010029746044892818
-4.425917722983286e-06,3.0163977498887107e-05,0.00012906015035696328
-9.891642548609525e-06,3.0455086744041182e-05,0.00015329662710428238
-2.3154304926720215e-06,2.5942108550225385e-05,0.00016044762742239982
2.1000598280807026e-05,2.104099803545978e-05,0.00015721702948212624
4.330962838139385e-05,1.622389208932873e-05,0.0001443560468032956
2.9094408091623336e-05,1.06699380921782e-05,8.705207437742501e-05
-1.766511377354618e-05,1.5829134554223856e-06,-6.614508311031386e-05
-5.295603477861732e-05,-1.0427861525386106e-05,-0.00023950720787979662
-5.904474892304279e-05,-2.0431529264897108e-05,-0.0002730065316427499
-6.00622188358102e-05,-2.925462649727706e-05,-0.0001924079260788858
-6.995946023380384e-05,-3.4755594242597e-05,-0.00014482832921203226
-6.881953595438972e-05,-3.5265555197838694e-05,-0.00015893785166554153
-4.651601557270624e-05,-3.819706034846604e-05,-0.00017006687994580716
-2.244845927634742e-05,-4.0275685023516417e-05,-0.00011979855480603874
-1.036286721500801e-05,-3.920733433915302e-05,-1.7833724996307865e-05
-2.8239771836524596e-06,-3.48971298080869e-05,3.055756678804755e-05
8.672212970850524e-06,-2.6876237825490534e-05,-4.909168274025433e-05
1.7085867511923425e-05,-1.895199420687277e-05,-0.00018722587265074253
1.4865757293591741e-05,-1.795237767510116e-05,-0.0002644043997861445
9.346656042907853e-06,-2.5260089387302287e-05,-0.00022409656958188862
1.2452057490008883e-05,-3.40864498866722e-05,-0.00010735762043623254
2.8569300411618315e-05,-3.522213228279725e-05,1.469575636292575e-05
4.677159449784085e-05,-2.8372860469971783e-05,0.0001143867484643124
5.1793969760183245e-05,-1.6356840205844492e-05,0.00018647906836122274
4.2681182094383985e-05,-7.078787120917696e-07,0.00020978273823857307
2.487341407686472e-05,1.131564386014361e-05,0.00018948459182865918
7.509557917728671e-07,1.3087638762954157e-05,0.00021972504328005016
-1.8503720639273524e-05,8.661176252644509e-06,0.0003815700183622539
-1.8713164536166005e-05,7.84066924097715e-06,0.0005560104036703706
-5.909078936383594e-06,6.7677765400731005e-06,0.0005134451785124838
5.1106958380842116e-06,-2.8074712190573337e-06,0.0002447043370921165
1.0126160304935183e-05,-1.9057846657233313e-05,-2.5256370008719387e-06
5.4944539442658424e-06,-3.2469841244164854e-05,-7.945377728901803e-05
-2.3579148091812385e-06,-3.496433419059031e-05,-8.547720062779263e-05
4.597658062266419e-06,-2.1568821466644295e-05,-0.00012062856694683433
2.132632289431058e-05,-5.6538133321737405e-06,-0.00014066432777326554
3.097406079177745e-05,-2.0084673906239914e-06,-6.829077028669417e-05
2.511612001399044e-05,-8.670045644976199e-06,5.369131395127624e-05
6.433555427065585e-06,-1.582586446602363e-05,7.680728595005348e-05
-9.784603207663167e-06,-1.751924355630763e-05,-1.1072454981331248e-05
-1.4302525414677802e-05,-1.9881827029166743e-05,-0.00010944517271127552
-1.743205575621687e-05,-2.1963545805192553e-05,-0.0001512867893325165
-3.171318530803546e-05,-1.5710091247456148e-05,-0.00013798370491713285
-6.068934089853428e-05,-2.752701448116568e-06,-0.00014141321298666298
-9.232838056050241e-05,1.1576400538615417e-05,-0.00014356327301356941
-0.0001018492694129236,2.5238583475584164e-05,-0.0001471376308472827
-8.744658407522365e-05,4.031304342788644e-05,-0.00017620238941162825
-6.116864096838981e-05,4.594022539095022e-05,-0.00019070417329203337
-2.8768959964509122e-05,3.2698280847398564e-05,-0.00015124840138014406
8.905291906557977e-06,1.2391042218951043e-05,-7.385847857221961e-05
4.484614328248426e-05,5.8803339015867095e-06,-3.092564156759181e-06
6.700433732476085e-05,2.0544888684526086e-05,3.6400244425749406e-05
7.173830090323463e-05,4.538000939646736e-05,3.834774179267697e-05
6.612138531636447e-05,6.0145946918055415e-05,2.8174232284072787e-05
6.670162110822275e-05,5.2350744226714596e-05,4.8801550292409956e-05
8.80311054061167e-05,2.5667532099760137e-05,0.00013257228420116007
0.00011029383313143626,-9.359389878227375e-06,0.00022683152928948402
8.716275624465197e-05,-3.8017184124328196e-05,0.0002574802783783525
1.4630787518399302e-05,-5.471172335091978e-05,0.00023981640697456896
-5.8652396546676755e-05,-6.70772569719702e-05,0.00025090976851060987
-9.352628694614395e-05,-7.238494436023757e-05,0.00027296546613797545
-8.994441304821521e-05,-5.807338675367646e-05,0.00021720444783568382
-7.123936666175723e-05,-3.058202128158882e-05,3.149909753119573e-05
-6.612007564399391e-05,-1.2122396583436057e-05,-0.00029309626552276313
-8.80554216564633e-05,5.802500709251035e-06,-0.0006026129121892154
-0.00011750724661396816,4.3206360714975744e-05,-0.0005721907946281135
-0.00011633802205324173,6.978336023166776e-05,-0.000253611768130213
-7.306782936211675e-05,6.961864710319787e-05,2.578752719273325e-05
-6.009532626194414e-06,7.013383583398536e-05,0.00015029236965347081
6.230074359336868e-05,7.735494727967307e-05,0.00017357936303596944
0.0001129858210333623,6.366601883200929e-05,0.00018168037058785558
0.00013103074161335826,3.017462950083427e-05,0.00016638610395602882
0.00011341273784637451,4.079086011188338e-06,0.00010435740114189684
7.184182322816923e-05,-1.6448270798719022e-06,-1.3338845747057348e-05
3.425700924708508e-05,5.534384854399832e-06,-0.00013520169886760414
2.4536844648537226e-05,9.713967301649973e-06,-0.0001982404210139066
3.4979584597749636e-05,7.369078502961202e-06,-0.00018401075794827193
4.097986311535351e-05,4.203737717034528e-06,-0.00013135024346411228
2.9298269510036334e-05,3.7445865928020794e-06,-6.835368549218401e-05
6.090315764595289e-06,4.410635938256746e-06,2.8437129913072567e-06
-1.4395622201845981e-05,6.3999277699622326e-06,7.512563752243295e-05
-2.076962664432358e-05,7.442518835887313e-06,0.00013934967864770442
-9.840586244536098e-06,7.042373454169137e-06,0.00018261298828292638
8.701727892912459e-06,5.210089057072764e-06,0.00020447203132789582
1.974796032300219e-05,-9.523199651084724e-07,0.0002060208353213966
2.057837809843477e-05,-1.1581505532376468e-05,0.00018571194959804416
1.4212680071068462e-05,-2.123041485901922e-05,0.00014217385614756495
5.850716661370825e-06,-2.1776182620669715e-05,0.00011328038817737252
1.9034885099245002e-06,-1.5386058294097893e-05,0.00010566284618107602
5.721202342101606e-06,-1.5044838619360235e-05,9.353174391435459e-05
1.5046074622659944e-05,-2.2029988031135872e-05,6.287689757300541e-05
2.5593937607482076e-05,-2.9526574508054182e-05,2.614494769659359e-05
2.8684891731245443e-05,-3.29518697981257e-05,6.518800091726007e-06
1.4176101103657857e-05,-2.5895684302668087e-05,2.4601207769592293e-05
-1.9653407434816472e-05,-7.987996468727943e-06,6.306764407781884e-05
-5.9294259699527174e-05,9.301523277827073e-06,8.652407996123657e-05
-6.515707354992628e-05,1.4195491530699655e-05,7.431885023834184e-05
-2.281926390423905e-05,7.04244166627177e-06,5.444705311674625e-05
3.179583654855378e-05,-9.62674675974995e-07,6.380652484949678e-05
5.778039121651091e-05,-5.328122369974153e-06,8.097371755866334e-05
5.150504512130283e-05,-5.407677690527635e-06,6.512187974294648e-05
4.402659760671668e-05,-2.8598058179341024e-06,1.0273595762555487e-05
5.778291597380303e-05,-1.7912342400450143e-06,-4.98387889820151e-05
7.583056867588311e-05,-7.684779120609164e-06,-7.181453838711604e-05
6.90071756253019e-05,-1.6535695976926945e-05,-4.946808621753007e-05
4.0002589230425656e-05,-2.1975762138026766e-05,-1.8445787645759992e-05
5.725791197619401e-06,-2.387731547059957e-05,-4.778562470164616e-06
-2.7988791771349497e-05,-2.027068694587797e-05,-1.3607368600787595e-06
-5.4161038860911503e-05,-9.189163392875344e-06,6.7616360865940806e-06
-5.84322442591656e-05,4.830139005207457e-06,7.889610060374252e-06
-4.83744042867329e-05,1.3268586371850688e-05,-1.2817158676625695e-05
-4.912197982775979e-05,1.6016187146306038e-05,-5.2404146117623895e-05
-5.887529187020846e-05,2.0677000065916218e-05,-9.362364653497934e-05
-5.406267518992536e-05,3.177378312102519e-05,-0.00011506341979838908
-3.43181673088111e-05,3.232997914892621e-05,-8.18639891804196e-05
-2.074762414849829e-05,1.2912179954582825e-05,-1.1978777365584392e-05
-3.0511384466080926e-05,-7.745421498839278e-06,-2.7741263693314977e-05
-4.7728492063470185e-05,-1.2376845006656367e-05,-0.00015394523506984115
-4.5135511754779145e-05,-1.1838643331429921e-05,-0.00025570797151885927
-3.0272494768723845e-05,-1.6992114979075268e-05,-0.00022877952142152935
-2.1242933144094422e-05,-2.2782873202231713e-05,-0.000125112957903184
-1.9396147763472982e-05,-2.470932849973906e-05,-6.114935240475461e-05
-1.7596596080693416e-05,-2.6273042749380693e-05,-3.8222184230107814e-05
-1.1628602806013077e-05,-2.892595875891857e-05,7.03448495187331e-06
-2.0089696590730455e-06,-2.577409759396687e-05,0.00010397248843219131
9.785073416423984e-06,-1.5793370039318688e-05,0.000222188959014602
2.097921969834715e-05,-4.959083526046015e-06,0.00033348516444675624
2.091006354021374e-05,5.241874987405026e-07,0.0004131646710447967
7.2048846959660295e-06,3.073755806326517e-06,0.00044864328810945153
-1.0602762813505251e-05,9.771886652742978e-06,0.00040302108391188085
-2.1870720956940204e-05,1.765155502653215e-05,0.00025344628375023603
-2.6948491722578183e-05,1.8765806089504622e-05,6.18265476077795e-05
-2.823508475557901e-05,8.631390301161446e-06,-6.32374722044915e-05
-2.025434332608711e-05,-8.337674444192089e-06,-7.996529893716797e-05
-1.6386444485760876e-06,-2.3274749764823355e-05,-4.927075860905461e-05
1.7780610505724326e-05,-3.062215546378866e-05,-3.776740049943328e-05
2.622431748022791e-05,-2.9004895623074844e-05,-4.741328302770853e-05
2.3727581719867885e-05,-2.0485556888161227e-05,-2.883219531213399e-05
1.9176281057298183e-05,-7.1413869591197e-06,2.390002555330284e-05
1.4064780771150254e-05,9.97889947029762e-06,4.67641293653287e-05
4.766973688674625e-06,2.0031047824886627e-05,-2.3385244276141748e-05
5.64076799491886e-07,1.3088478226563893e-05,-0.00012564010103233159
8.737931239011232e-06,-3.8599350773438346e-06,-0.00015509747026953846
1.6304336895700544e-05,-1.6727804904803634e-05,-0.00010041594941867515
1.408370280842064e-05,-2.0270437744329683e-05,-1.3320418474904727e-05
6.020371529302793e-06,-1.1746685231628362e-05,8.11666322988458e-05
-2.1785315595934662e-07,1.2077753126504831e-05,0.00010458614269737154
4.534054824034683e-06,3.112471677013673e-05,-1.4403738532564603e-05
1.4947818272048607e-05,2.7559626687434502e-05,-0.0002317492908332497
2.6500851163291372e-05,8.893895937944762e-06,-0.00036192918196320534
2.6460624212631956e-05,1.222582000082184e-06,-0.0002966063912026584
3.607665803428972e-06,8.374486242246348e-06,-0.00015194954175967723
-2.6081843316205777e-05,1.0411250514152925e-05,-4.213646025164053e-05
-3.710993769345805e-05,2.0019372186652618e-06,-1.0720306818257086e-05
-2.077739372907672e-05,-6.6201882873428985e-06,-4.7216071834554896e-05
9.39908750297036e-06,-7.9677110988996e-06,-9.658613271312788e-05
3.575385926524177e-05,-6.4810797084646765e-06,-8.248518861364573e-05
4.7581772378180176e-05,-1.11979079520097e-05,-7.68164773035096e-06
4.7435016313102096e-05,-1.9896551748388447e-05,6.816790846642107e-05
4.5540153223555535e-05,-2.216092252638191e-05,0.00011325164814479649
4.579189044306986e-05,-1.1835130862891674e-05,0.00015803135465830564
3.860525248455815e-05,5.995937954139663e-06,0.00022634195920545608
2.02210958377691e-05,1.3250823030830361e-05,0.0002500322589185089
1.4371097449838999e-06,2.2211265786609147e-06,0.0001624105789232999
-1.0196608855039813e-05,-1.1308306056889705e-05,2.454961941111833e-05
-1.8073615137836896e-05,-7.716796972090378e-06,-3.9739901694701985e-05
-2.6411042199470103e-05,6.767877948732348e-06,-2.3290256194741232e-06
-3.880629810737446e-05,1.0675677913241088e-05,6.759854295523837e-05
-4.260810965206474e-05,-5.142229383636732e-06,0.00010002749331761152
-2.575200778665021e-05,-2.7338135623722337e-05,0.00010212148481514305
-7.79194579081377e-06,-3.066239150939509e-05,0.0001088179851649329
-6.72551595926052e-06,-9.869692803476937e-06,0.00012275431072339416
-2.7757723728427663e-05,7.031790573819308e-06,0.0001417238381691277
-4.7569137677783147e-05,-2.2637755137111526e-06,0.00016475163283757865
-4.224682925269008e-05,-2.1474215827765875e-05,0.00018454955716151744
-2.983481863338966e-05,-2.597531783976592e-05,0.0001809118257369846
-2.9472548703779466e-05,-1.6461815903312527e-05,0.00014029545127414167
-3.648107303888537e-05,3.922642008546973e-06,0.00010283291339874268
-3.432281664572656e-05,3.297555667813867e-05,9.363242133986205e-05
-1.840627010096796e-05,6.0303562349872664e-05,5.7016655773622915e-05
1.7396749171894044e-05,7.780319720041007e-05,-6.276497879298404e-05
6.015729013597593e-05,8.444187551504001e-05,-0.00019009350216947496
8.171654917532578e-05,7.381239993264899e-05,-0.00024891653447411954
8.280398469651118e-05,4.477756010601297e-05,-0.00028703833231702447
7.643167919013649e-05,1.3487057003658265e-05,-0.0003094749990850687
5.3179643145995215e-05,-1.7655825104156975e-06,-0.00022284043370746076
6.257798759179423e-06,1.4839719142401009e-06,-3.2739535527070984e-05
-3.634651511674747e-05,1.0905290764640085e-05,0.0001325017074123025
-4.326410999055952e-05,2.0887899154331535e-05,0.00017691943503450602
-1.788355984899681e-05,2.628629772516433e-05,0.00011271196126472205
1.3345599654712714e-05,1.6010159015422687e-05,1.052049447025638e-05
3.405761526664719e-05,-8.585024261265062e-06,-7.47587182559073e-05
4.178943345323205e-05,-2.5968041882151738e-05,-0.00010792909597512335
3.8554848288185894e-05,-2.2056017769500613e-05,-8.231833635363728e-05
2.201539246016182e-05,-8.684545719006564e-06,-4.422044366947375e-05
-3.068566911679227e-06,-1.0281118193233851e-05,-5.509979746420868e-05
-2.5390012524439953e-05,-2.73242658295203e-05,-0.00011391637235647067
-3.5777848097495735e-05,-4.1304116166429594e-05,-0.00016357538697775453
-3.760238905670121e-05,-4.1902581870090216e-05,-0.00016964919632300735
-3.386137541383505e-05,-3.100920730503276e-05,-0.00015357953088823706
-2.9108703529345803e-05,-1.5642990547348745e-05,-9.260129445465282e-05
-3.121617919532582e-05,-5.282909114612266e-07,3.327836748212576e-05
-3.4796841646311805e-05,1.3903275430493522e-05,0.00019097683252766728
-2.9391527277766727e-05,2.4902743462007493e-05,0.00030566437635570765
-1.4579562957806047e-05,2.2825266569270752e-05,0.00031550388666801155
1.4953635400161147e-05,5.477726062963484e-06,0.00023131498892325908
5.314081136020832e-05,-1.0536989066167735e-05,0.00011336388706695288
6.704912084387615e-05,-8.319659173139371e-06,2.5310419005108997e-05
4.7921032091835514e-05,6.752658009645529e-06,-2.3654305550735444e-05
1.548625368741341e-05,1.707963201624807e-05,-5.6490753195248544e-05
-1.7636024495004676e-05,1.3898525139666162e-05,-6.718720396747813e-05
-4.99753441545181e-05,3.6350145364849595e-06,-5.453789344755933e-05
-6.744482379872352e-05,-5.6868771025619935e-06,-5.3662854043068364e-05
-5.724551738239825e-05,-7.828728485037573e-06,-6.479451258201152e-05
-3.4915214200736955e-05,-3.1218987714964896e-06,-4.8960380809148774e-05
-2.443055018375162e-05,1.4695181107526878e-06,-3.3741853258106858e-06
-2.457890695950482e-05,7.076915835568798e-07,2.3001499357633293e-05
-2.49808763328474e-05,-3.3708338378346525e-06,-1.600986797711812e-05
-2.1427729734568857e-05,-6.853138529550051e-06,-9.338428935734555e-05
-1.0125125299964566e-05,-1.047013392962981e-05,-9.661944932304323e-05
7.3837941272358876e-06,-1.7422662494936958e-05,1.7682050383882597e-05
2.2791886294726282e-05,-2.2687530872644857e-05,0.00011506914597703144
2.605076224426739e-05,-1.894651541078929e-05,0.00011029202141799033
7.363205895671854e-06,-5.5202322073455434e-06,8.1851780123543e-05
-2.9406817702692933e-05,1.1627096682786942e-05,7.82784991315566e-05
-5.5851040087873116e-05,1.3098475392325781e-05,8.532228821422905e-05
-3.738972736755386e-05,-9.733561455504969e-06,6.949227099539712e-05
1.5906876797089353e-05,-3.046426900255028e-05,5.4216212447499856e-05
4.778103902935982e-05,-3.498355727060698e-05,8.720181358512491e-05
4.153157351538539e-05,-3.527324224705808e-05,0.0001677513646427542
3.4001230233116075e-05,-3.494165139272809e-05,0.00027315731858834624
4.338728467701003e-05,-3.0059107302804478e-05,0.00030789701850153506
5.091230559628457e-05,-9.848980880633462e-06,0.00023918038641568273
4.446058301255107e-05,2.1573863705270924e-05,0.00015354040078818798
3.246661071898416e-05,4.972410170012154e-05,0.00011915036157006398
3.61872480425518e-05,5.8260189689463004e-05,0.0001719291030894965
6.015371764078736e-05,4.3725147406803444e-05,0.00029191869543865323
8.713389979675412e-05,1.8296605048817582e-05,0.0003801331913564354
9.952161781257018e-05,-3.880521489918465e-06,0.0003513409465085715
9.634593152441084e-05,-2.0509203750407323e-05,0.00018650072161108255
8.224194607464597e-05,-3.754061253857799e-05,-0.00010576612839940935
6.256812048377469e-05,-5.036229777033441e-05,-0.00040353729855269194
5.099464033264667e-05,-4.6996825403766707e-05,-0.0005078985122963786
5.232849798630923e-05,-2.6367655664216727e-05,-0.0003846338076982647
5.3642601415049285e-05,-2.2338897451845696e-06,-0.00021471579384524375
3.9031128835631534e-05,1.5187465578492265e-05,-0.0001359567540930584
1.0930802091024816e-05,2.25297062570462e-05,-0.0001173188938992098
-1.715363032417372e-05,1.8172302588936873e-05,-9.589590627001598e-05
-4.070472641615197e-05,9.299821613240056e-06,-8.944700675783679e-05
-7.233262294903398e-05,1.6428204617113806e-05,-0.00014423643006011844
-0.00011926156003028154,3.614432716858573e-05,-0.000204522701096721
-0.00015732302563264966,4.844805152970366e-05,-0.00016613998741377145
-0.0001553638285258785,4.200603871140629e-05,-6.360098632285371e-05
-0.00013021969061810523,1.7909087546286173e-05,-1.1819084647868294e-05
-0.00012074456026311964,-5.4577449191128835e-06,-1.7076925360015593e-05
-0.00010931333235930651,-1.0584763003862463e-05,-1.7923566701938398e-05
-7.239859405672178e-05,-4.670496309699956e-06,8.746888852328993e-06
-3.073730840696953e-05,-2.2884858026372967e-06,3.3567230275366455e-05
1.936589114848175e-06,-8.3928262029076e-06,3.837110489257611e-05
1.9485614757286385e-05,-1.700540815363638e-05,4.0618560888106003e-05
2.4656254026922397e-05,-2.1334881239454262e-05,4.017041646875441e-05
2.2226562577998266e-05,-2.2369589714799076e-05,2.2735601305612363e-05
1.9648234228952788e-05,-2.4788310838630423e-05,1.0782122444652487e-05
2.0558831238304265e-05,-2.738412149483338e-05,1.684271774138324e-05
3.179449413437396e-05,-2.8623871912714094e-05,4.31367261626292e-05
4.8153237003134564e-05,-3.28330097545404e-05,7.288021879503503e-05
5.74109326407779e-05,-3.634352106018923e-05,9.230995055986568e-05
5.5822532885940745e-05,-3.3050131605705246e-05,0.00010724010644480586
4.371453178464435e-05,-2.425367165415082e-05,0.0001416744926245883
2.7180476536159404e-05,-1.5843594155739993e-05,0.00021170890249777585
1.530254121462349e-05,-1.0755631592473947e-05,0.0002649335074238479
1.706417060631793e-05,-1.08564618130913e-05,0.00021927084890194237
1.776395038177725e-05,-1.4668766198155936e-05,7.944889512145892e-05
-2.773787855403498e-06,-1.6748057532822713e-05,-5.853374386788346e-05
-4.303680907469243e-05,-7.844846550142393e-06,-0.000124732221593149
-8.349264680873603e-05,1.775201417331118e-05,-0.00011724502110155299
-0.00011277655721642077,4.640130282496102e-05,-8.197331771953031e-05
-0.00012226558465044945,5.3674437367590144e-05,-5.067118036095053e-05
-0.00010316207772120833,4.138645817874931e-05,-2.7335458071320318e-05
-6.524240598082542e-05,2.7172833142685704e-05,6.901072424625454e-08
-3.018131792487111e-05,1.8740023733698763e-05,4.219252150505781e-05
-1.228610835823929e-05,1.8500812075217254e-05,9.967055666493252e-05
-7.594617272843607e-06,2.2497917598229833e-05,0.0001535683695692569
-1.941833261298598e-06,2.3150882043410093e-05,0.00014931929763406515
-2.0888567178189987e-06,1.623397838557139e-05,7.6097544479125645e-06
-3.393980250621098e-06,4.444354090082925e-06,-0.00021875285892747343
3.258526703575626e-06,-7.541625109297456e-06,-0.000327910267515108
2.0498879166552797e-05,-1.694622915238142e-05,-0.0002322645450476557
4.009447366115637e-05,-1.877306931419298e-05,-7.190838368842378e-05
4.9911912356037647e-05,-1.2197372598166112e-05,-6.718025360896718e-06
4.479120616451837e-05,-5.1963861551485024e-06,-4.682575672632083e-05
3.6283476219978184e-05,-2.9967357022542274e-06,-9.747420699568465e-05
4.174756395514123e-05,-4.821857146453112e-06,-9.50531248236075e-05
6.0910420870641246e-05,-4.285594968678197e-06,-4.719172648037784e-05
7.775575795676559e-05,3.265622808612534e-06,1.2268888895050623e-05
7.234168879222125e-05,1.2665285794355441e-05,5.8531859394861385e-05
4.743003592011519e-05,1.3140974260750227e-05,8.149963832693174e-05
2.502266397641506e-05,1.2340401553956326e-06,8.239942690124735e-05
2.043224776571151e-05,-1.0705279237299692e-05,7.479931082343683e-05
2.3621449145139195e-05,-7.120539976313012e-06,6.344931171042845e-05
2.3924148990772665e-05,8.999043529911432e-06,4.935335891786963e-05
1.792143848433625e-05,1.793659248505719e-05,3.7184559914749116e-05
1.2207994586788118e-05,9.347140803583898e-06,4.2740492062876e-05
7.369578725047177e-06,-6.473409030149924e-06,5.635757770505734e-05
-7.532895324402489e-06,-1.8214921510661952e-05,3.879379073623568e-05
-2.864282032533083e-05,-2.52927220572019e-05,6.72867099638097e-06
-3.031204869330395e-05,-2.7262969524599612e-05,1.793529008864425e-05
-7.591475423396332e-06,-2.569401476648636e-05,7.326407649088651e-05
1.1233831173740327e-05,-2.1489810023922473e-05,0.00015500737936235964
1.2196892384963576e-05,-1.8549673768575303e-05,0.0002196194400312379
9.164587936538737e-06,-1.3456165106617846e-05,0.00022064773656893522
1.3055713679932524e-05,-9.09048776520649e-06,0.00015307991998270154
2.004558700718917e-05,-1.5974956113495864e-05,1.4984721929067746e-05
1.6092599253170192e-05,-2.8239124731044285e-05,-0.00012948834046255797
9.133075764111709e-06,-3.6724817618960515e-05,-0.0001780543680069968
9.865987522061914e-06,-3.8331450923578814e-05,-9.715728810988367e-05
1.4806173567194492e-05,-3.757229205803014e-05,4.8653106205165386e-05
1.682892798271496e-05,-3.0298102501546964e-05,0.00012975189019925892
1.4165932043397333e-05,-1.2079747648385819e-05,0.00010174973431276157
4.74667740490986e-06,1.2015426364087034e-05,3.760647450690158e-05
-1.0416010809422005e-05,2.6248500944348052e-05,1.6500503988936543e-05
-2.0786805180250667e-05,2.3832482838770375e-05,4.7650424676248804e-05
-2.1773665139335208e-05,1.4769102563150227e-05,9.181853965856135e-05
-1.5821007764316164e-05,8.516524758306332e-06,0.00011697817535605282
-4.698868906416465e-06,1.4312172424979508e-06,0.000100011529866606
1.1928478670597542e-05,-7.85312022344442e-06,1.9256045561633073e-05
2.303836663486436e-05,-8.924808753363322e-06,-0.00010755949915619567
1.5105524653336033e-05,-3.5416283594713605e-07,-0.00020479998784139752
-8.743555554246996e-06,1.0267504876537714e-05,-0.00021420557459350675
-2.5971748982556164e-05,1.642716961214319e-05,-0.00011934818758163601
-3.3293985325144604e-05,1.275013892154675e-05,1.6400737877120264e-05
-4.325832560425624e-05,2.764107421171502e-06,9.20307866181247e-05
-4.7383557102875784e-05,9.566000471750158e-07,0.00011057304072892293
-2.4210685296566226e-05,4.788386831933167e-06,0.00019180479284841567
9.020991456054617e-06,3.8140233300509863e-06,0.0004043903900310397
1.1725784133886918e-05,4.796105486093438e-07,0.0005593089736066759
-1.9809407604043372e-05,3.7783331663376885e-06,0.0005288643878884614
-5.355614121071994e-05,5.927919573878171e-06,0.00034024505293928087
-7.459148037014529e-05,3.4540798878879286e-06,2.6553696443443187e-05
-8.005004201550037e-05,5.384524683904601e-06,-0.00024827587185427547
-6.276282510953024e-05,1.687998155830428e-05,-0.00034759074333123863
-2.708544343477115e-05,3.217229459551163e-05,-0.0003061759052798152
5.661043815052835e-06,4.1932031308533624e-05,-0.0002714731090236455
2.0789606423932128e-05,5.055545625509694e-05,-0.00029092252952978015
1.9716655515367165e-05,5.8324760175310075e-05,-0.0003376833919901401
1.469763446948491e-05,5.602700184681453e-05,-0.0003714506165124476
1.871002314146608e-05,3.711921817739494e-05,-0.0003333046333864331
3.504920096020214e-05,5.989636065351078e-06,-0.00019775991677306592
5.840785161126405e-05,-2.9219232601462863e-05,-2.1252117221592925e-05
7.223382999654859e-05,-5.636007699649781e-05,0.00010715729877119884
7.553963223472238e-05,-6.608914554817602e-05,0.00016709927876945585
7.940067007439211e-05,-6.284915434662253e-05,0.00020741531625390053
8.150348003255203e-05,-5.853989932802506e-05,0.0002730524865910411
6.907423812663183e-05,-5.441492612590082e-05,0.00032263516914099455
4.3003776227124035e-05,-4.081680890521966e-05,0.0002493838546797633
1.1978332622675225e-05,-1.9070619600825012e-05,-3.4327599678363185e-06
-7.822649422450922e-06,7.255646778503433e-06,-0.00027923870948143303
-1.5237355000863317e-05,3.377404573257081e-05,-0.00033443214488215744
-3.5184570151614025e-05,5.1361370424274355e-05,-0.00015816125960554928
-7.064941746648401e-05,6.705993291689083e-05,1.3172628314350732e-05
-9.063343895832077e-05,7.468983676517382e-05,3.797272438532673e-05
-7.629310130141675e-05,5.165926995687187e-05,-2.213540210505016e-05
-4.219658512738533e-05,2.036263504123781e-05,-3.565287261153571e-05
3.1872850740910508e-06,1.2993556993023958e-05,-4.005323717137799e-05
4.8370555305154994e-05,2.756707908702083e-05,-0.00012117523147026077
6.69397777528502e-05,4.292253652238287e-05,-0.0001741618907544762
5.285663792164996e-05,4.441256169229746e-05,-0.00010907635441981256
2.5277244276367128e-05,3.579640542739071e-05,6.195280002430081e-05
8.63497280079173e-06,2.4457069230265915e-05,0.00024873422808013856
3.397594809939619e-06,1.7244212358491495e-05,0.0003158484760206193
-4.650602477340726e-06,1.2082167813787237e-05,0.00024078571004793048
-2.106617102981545e-05,4.619837000063853e-06,0.00013039392069913447
-3.9473845390602946e-05,-9.582880011294037e-06,5.606717604678124e-05
