3.8812584534753114e-05,2.4320330339833163e-05,-5.213566055317642e-06
3.075769927818328e-05,2.0103399947402067e-05,3.55668112206331e-06
7.602327968925238e-05,8.324165719386656e-06,-7.5581301643978804e-06
0.00012148266250733286,-1.2326275964369415e-06,-2.7965004846919328e-05
6.943471817066893e-05,-5.490459443535656e-06,-4.2119525460293517e-05
-2.722820318012964e-05,-5.318713647284312e-06,-3.8480608054669574e-05
-1.9701392375282012e-05,2.671160245881765e-06,-1.853429785114713e-05
7.090568396961316e-05,1.2821175005228724e-05,1.3426561054075137e-05
5.8998706663260236e-05,1.598187918716576e-05,4.846543015446514e-05
-9.668750135460868e-05,1.1351710782037117e-05,6.80988232488744e-05
-0.00028566329274326563,5.0957801249751355e-06,7.532867311965674e-05
-0.00039136208943091333,7.177744009823073e-06,9.389121260028332e-05
-0.0004124121624045074,1.7566750102560036e-05,0.0001219182086060755
-0.00037541487836278975,2.5981125872931443e-05,0.0001405736547894776
-0.00023381519713439047,2.5532133804517798e-05,0.00013979226059745997
8.657632861286402e-05,1.681570392975118e-05,0.00011612306843744591
0.0004720037104561925,-1.8223144024887006e-06,7.112532330211252e-05
0.0006209192797541618,-2.90405769192148e-05,4.912547865387751e-06
0.00044154873467050493,-5.0067214033333585e-05,-5.2403345762286335e-05
0.00014469659072346985,-5.085743759991601e-05,-6.0777427279390395e-05
1.2724216503556818e-05,-3.2496158382855356e-05,-2.3480310119339265e-05
0.00010761870362330228,-1.4566694517270662e-05,5.815129952679854e-06
0.0002236591826658696,-1.4366101822815835e-05,-7.787073627696373e-06
0.00017407741688657552,-2.6770858312374912e-05,-3.590002961573191e-05
-2.1558904336416163e-05,-3.1949351978255436e-05,-4.0371905924985185e-05
-0.0003068863588850945,-2.5082485080929473e-05,-2.2610920495935716e-05
-0.0005781783838756382,-1.5193820217973553e-05,-1.1911914953088854e-05
-0.0005940805422142148,-9.544246495352127e-06,-2.1351776013034396e-05
-0.00030577435973100364,-6.04117713010055e-06,-3.50705195160117e-05
-9.946747013600543e-06,-1.4894228570483392e-06,-4.286214243620634e-05
8.311735291499645e-05,8.107043925065227e-08,-5.507401147042401e-05
4.8150036491279025e-06,-6.916420858260608e-08,-6.469142681453377e-05
-9.77830495685339e-05,3.79107405024115e-06,-5.254130519460887e-05
-0.00013626769941765815,3.467324859229848e-06,-2.8583088351297192e-05
-0.00011128388723591343,-3.690639260867101e-08,-8.284189789264929e-06
-5.7107721659122035e-05,1.2384073215798708e-06,4.844229806622025e-06
3.221325823687948e-05,3.2529687814530917e-06,6.18648664385546e-06
0.00013048241089563817,5.914971552556381e-06,5.024654910812387e-06
0.00015553443518001586,7.248729161801748e-06,1.0263871445204131e-05
0.0001229285990120843,1.1637948773568496e-05,2.3836444597691298e-05
9.33103947318159e-05,1.9886716472683474e-05,4.296575207263231e-05
3.972329795942642e-05,2.5408913643332198e-05,6.133251008577645e-05
-8.579337736591697e-05,2.3587446776218712e-05,6.734416092513129e-05
-0.0002970480127260089,1.4064361494092736e-05,6.380677950801328e-05
-0.0005062631098553538,1.5582361356791807e-06,6.590916018467396e-05
-0.0005668845260515809,-5.289234195515746e-06,8.173519745469093e-05
-0.00042330013820901513,-6.719099474139512e-06,0.00010041442874353379
-0.00012769374006893486,-1.0653644494595937e-05,0.00010447746171848848
0.0002193112304667011,-1.710563628876116e-05,9.195978054776788e-05
0.0004649059264920652,-1.7939304598257877e-05,7.945166726130992e-05
0.00047432989231310785,-5.93670165471849e-06,8.689860260346904e-05
0.00031690014293417335,1.2772923582815565e-05,0.00011028684093616903
0.00017596883117221296,2.2733867808710784e-05,0.000121989258332178
0.00012409541523084044,1.6931313439272344e-05,0.000100788711279165
0.00011992130021099001,7.739080501778517e-06,6.324404967017472e-05
0.0001443346554879099,5.997522748657502e-06,3.6274028389016166e-05
0.00019008063827641308,2.7322478217683965e-06,4.881830136582721e-06
0.00022375314438249916,-1.2013442756142467e-05,-5.883697303943336e-05
0.00014416078920476139,-2.2747077309759334e-05,-0.00011697722948156297
-7.473602454410866e-05,-1.8018919945461676e-05,-0.00012139404861954972
-0.00022803244064562023,-5.849874014529632e-06,-9.157225576927885e-05
-0.00017962264246307313,4.672178874898236e-06,-7.086707046255469e-05
-2.868177580239717e-05,1.0015344741987064e-05,-6.746043800376356e-05
7.973814354045317e-05,1.3532935554394498e-05,-6.665854016318917e-05
7.626770093338564e-05,1.6527348634554073e-05,-5.699495523003861e-05
9.020928700920194e-06,1.8697446648729965e-05,-4.103688843315467e-05
-1.9169465304003097e-05,2.279405453009531e-05,-2.138875424861908e-05
-1.3711866813537199e-05,3.0324912586365826e-05,5.187655460758833e-06
-9.372513159178197e-05,3.398182161618024e-05,3.396581450942904e-05
-0.00015215069288387895,2.7014477382181212e-05,5.4735250159865245e-05
-3.5160837796865962e-06,9.472911187913269e-06,6.059228689991869e-05
0.00031567568657919765,-1.710855940473266e-05,5.2224866522010416e-05
0.0004910786519758403,-4.072096635354683e-05,3.173498043906875e-05
0.00035541682154871523,-4.883852307102643e-05,1.4701927284477279e-05
9.411052451469004e-05,-3.994963481090963e-05,2.1738240320701152e-05
-0.00010418411693535745,-2.5778075723792426e-05,4.023800283903256e-05
-0.0002183738979510963,-2.0394947569002397e-05,3.815053787548095e-05
-0.00031608997960574925,-2.580061845947057e-05,1.6689255062374286e-05
-0.00036300235660746694,-2.9462584279826842e-05,5.0034655032504816e-06
-0.0002732032153289765,-2.2602906028623693e-05,1.4175741853250656e-05
-6.995557487243786e-05,-1.2642428373510484e-05,2.772467450995464e-05
9.361527918372303e-05,-5.130092631588923e-06,3.660947913886048e-05
0.00015162132331170142,-1.0261059202321121e-07,4.830876423511654e-05
0.00012895383406430483,1.1874099072883837e-06,5.7098066463368014e-05
7.908145926194265e-05,-1.2529083051049383e-06,5.379510548664257e-05
5.095852611702867e-05,-3.2846048725332366e-06,4.8968460760079324e-05
7.00329546816647e-05,-1.9890508156095166e-06,4.8180467274505645e-05
0.00010433497664052993,-5.809545200463617e-07,4.260995774529874e-05
9.026043699122965e-05,1.6061578662629472e-06,3.5702516470337287e-05
2.25548428716138e-05,6.586033123312518e-06,2.810259502439294e-05
-5.1140712457709014e-05,8.73559110914357e-06,1.1086716767749749e-05
-9.047683124663308e-05,8.623864232504275e-06,-9.676906302047428e-06
-0.00010044675582321361,1.1451083082647528e-05,-1.8226712199975736e-05
-0.00014656911662314087,1.9608352886280045e-05,-7.624945283168927e-06
-0.00022864059428684413,2.811385456880089e-05,1.1487448318803217e-05
-0.0003121374757029116,3.023031422344502e-05,2.6396062821731903e-05
-0.00040001916931942105,2.4676475732121617e-05,3.3665190130705014e-05
-0.0003472621028777212,2.1956882847007364e-05,3.356696106493473e-05
3.1957344617694616e-05,2.3534348656539805e-05,2.7013595172320493e-05
0.0005343049997463822,2.0833695089095272e-05,1.4885741620673798e-05
0.0008028215961530805,1.2051566045556683e-05,-3.477835207377211e-06
0.0007791086682118475,1.2940718079335056e-06,-3.079220186918974e-05
0.0004995934432372451,-7.066606485750526e-06,-6.570365076186135e-05
-9.005862375488505e-05,-1.1995517525065225e-05,-8.516579691786319e-05
-0.000800339097622782,-1.2708661415672395e-05,-6.69456712785177e-05
-0.0011467474978417158,-1.023556887957966e-05,-2.275189217471052e-05
-0.00094113644445315,-9.240785402653273e-06,1.943101051438134e-05
-0.00041036721086129546,-2.0757503079948947e-05,3.855040995404124e-05
0.0002078177931252867,-4.434649963513948e-05,3.21724328387063e-05
0.0007276470423676074,-5.8556914154905826e-05,2.362549457757268e-05
0.0009337241644971073,-4.850613186135888e-05,3.1359602871816605e-05
0.0006302698748186231,-2.4060358555288985e-05,5.495421646628529e-05
-1.4276629372034222e-05,6.855696028651437e-07,8.071501360973343e-05
-0.0004461488570086658,1.9560528016882017e-05,0.00010106605623150244
-0.00032903358805924654,2.934425720013678e-05,0.00010938494233414531
5.8135035942541435e-05,2.68115327344276e-05,7.460750930476934e-05
0.0002185212797485292,1.2307913493714295e-05,-8.855221494741272e-06
9.101056639337912e-05,-9.779796528164297e-07,-7.306967017939314e-05
-6.157301686471328e-05,-3.2742366329330252e-06,-6.813703657826409e-05
-3.076924622291699e-05,-3.3534495287312893e-06,-2.327376205357723e-05
0.0001126920324168168,-8.264160896942485e-06,1.4605100659537129e-05
0.0002005335409194231,-1.6919202607823536e-05,1.8988197552971542e-05
0.00010048455442301929,-2.156734626623802e-05,6.401398422894999e-06
-9.406386379851028e-05,-2.0856525225099176e-05,-5.428453732747585e-06
-0.00021570564422290772,-1.584844540047925e-05,-1.545222767163068e-05
-0.00020367787510622293,-9.477469575358555e-06,-2.5161953089991584e-05
-0.00011688069207593799,-4.046427875437075e-06,-3.243665923946537e-05
-4.6138884499669075e-05,2.0590471194736892e-06,-3.508718509692699e-05
-2.1135296265129e-05,5.717755357181886e-06,-3.34119213221129e-05
-2.1749010556959547e-05,2.872127652153722e-06,-3.563410064089112e-05
-9.664986464485992e-06,-1.919255055327085e-06,-4.484188320930116e-05
-3.107973316218704e-05,-1.741240339470096e-06,-4.413632268551737e-05
-0.00013370516535360366,6.20638047621469e-08,-3.0494707971229218e-05
-0.00028410443337634206,-5.836311629536794e-07,-1.5873241864028387e-05
-0.00031102445791475475,8.417004551120044e-07,-3.7760964914923534e-06
-0.000131685083033517,7.880496923462488e-06,1.4008976904733572e-05
0.00014903723786119372,1.2853611224272754e-05,2.9307775548659265e-05
0.0003457376442383975,1.2354876162135042e-05,2.4452427169308066e-05
0.00037039126618765295,6.575988209078787e-06,8.270782814179256e-07
0.00024166716320905834,9.084575367523939e-07,-1.878332295746077e-05
0.00011116875248262659,-1.0637944569680258e-07,-1.231850910698995e-05
6.419264536816627e-05,9.197719919029623e-07,2.2744421585230157e-05
9.42423014294036e-07,1.576935005687119e-06,5.951028288109228e-05
-7.799218292348087e-05,1.7140414456662256e-06,7.967621058924124e-05
-9.265039261663333e-05,3.851778728858335e-06,9.923744073603302e-05
-9.375906665809453e-05,9.650520951254293e-06,0.0001330098748439923
-1.3217239029472694e-05,1.2797009731002618e-05,0.00016359174333047122
0.0002301333734067157,1.2119731763959862e-05,0.00016639144450891763
0.0005519161350093782,1.6429941751994193e-05,0.00014633829414378852
0.0008244079654105008,1.9200411770725623e-05,0.00010118746286025271
0.0008457356016151607,7.3338883339602035e-06,3.915742854587734e-05
0.00044391999836079776,-1.485754910390824e-05,1.0272501640429255e-06
-0.00017528228636365384,-3.2754694984760135e-05,9.840805432759225e-07
-0.000547527801245451,-3.6759342037839815e-05,1.6456506273243576e-05
-0.0004910827847197652,-2.980423960252665e-05,2.91591295535909e-05
-0.00021293039026204497,-2.0542298443615437e-05,3.231580194551498e-05
-2.551921170379501e-05,-1.8119962987839244e-05,1.4962039131205529e-05
-2.2466512746177614e-05,-2.149354804714676e-05,-1.4711277799506206e-05
-9.894112008623779e-05,-2.0318140741437674e-05,-2.8750046112691052e-05
-0.00016059116751421243,-1.1831296433229e-05,-2.553126796556171e-05
-0.00020893116015940905,-3.767206180782523e-06,-3.2850213756319135e-05
-0.00022918390459381044,-1.5327684650401352e-06,-5.398075154516846e-05
-0.00019466171215754002,-5.383913048717659e-06,-7.174170605139807e-05
-0.0001287432824028656,-1.1324456863803789e-05,-8.016014180611819e-05
-8.181825251085684e-05,-1.0364374247728847e-05,-7.410339458147064e-05
-6.64572580717504e-05,-3.3564899695193162e-06,-5.1383321988396347e-05
-0.00010326329356757924,1.0113718644788605e-06,-2.5767078113858588e-05
-0.00026019339566119015,8.467737643513829e-06,-3.861125605908455e-06
-0.00048259246977977455,2.04862608370604e-05,1.669972152740229e-05
-0.00055591796990484,2.9619815904879943e-05,2.9658040148206055e-05
-0.0003784179862122983,3.619203926064074e-05,3.4185450203949586e-05
-7.144494884414598e-05,3.375520827830769e-05,3.23400272463914e-05
0.00016865605721250176,1.954626350197941e-05,1.7996742826653644e-05
0.0003300068201497197,-1.2944949503435055e-06,4.290152446628781e-06
0.00047673407243564725,-1.7877093341667205e-05,1.3208808013587259e-05
0.0005966043099761009,-2.7165806386619806e-05,2.8660462703555822e-05
0.0006330320611596107,-2.8644039048231207e-05,3.8405541999964043e-05
0.0005202312022447586,-2.3943077394505963e-05,4.705756509792991e-05
0.00021083395404275507,-1.787372093531303e-05,5.78910912736319e-05
-0.00019121778314001858,-1.409268043062184e-05,7.254601223394275e-05
-0.00040173024171963334,-1.1657956747512799e-05,8.762895595282316e-05
-0.00031669106101617217,-6.791935902583646e-06,9.378910181112587e-05
-0.00013153694453649223,-1.4401698535948526e-06,8.343010995304212e-05
-4.8139725549845025e-05,1.24083939567754e-07,6.166929233586416e-05
-5.8954527048626915e-05,-3.4452498312020907e-06,4.213902502669953e-05
-7.674351218156517e-05,-6.768459570594132e-06,3.6389574233908206e-05
-7.089260179782286e-05,-5.049464107287349e-06,4.24140234827064e-05
-5.512411007657647e-05,-8.6617166061842e-07,4.824257121072151e-05
-3.188474147464149e-05,-2.00406944372844e-07,4.344212356954813e-05
-1.0436233424115926e-05,-8.572018828090222e-07,3.168715920764953e-05
7.693458428548183e-06,1.9043845611577126e-07,2.056179437204264e-05
5.287157364364248e-06,7.263491625053575e-06,1.2337517546257004e-05
-2.1583426132565364e-05,1.660961970628705e-05,9.342862540506758e-06
-3.0107474231044762e-05,2.192733700212557e-05,6.32573801340186e-06
1.7567841496202163e-05,2.1201258277869783e-05,-1.3766700249107089e-05
9.083621262107044e-05,1.523292394267628e-05,-4.8588648496661335e-05
0.000140369389555417,9.735505045682658e-06,-7.295337854884565e-05
0.0001469481794629246,5.825836979056476e-06,-7.349494990194216e-05
0.0001364375784760341,2.363196699661785e-06,-6.360038241837174e-05
0.00013526661496143788,-5.163496439308801e-07,-5.602022065431811e-05
9.622934157960117e-05,-1.263221292902017e-06,-4.5695953303948045e-05
-2.7803667762782425e-05,6.206216198734182e-07,-3.060856033698656e-05
-0.00019471667474135756,-4.624502594197111e-07,-1.5265244655893184e-05
-0.00026444171089679003,-3.7397546748252353e-06,-7.1836807364888955e-06
-0.0001733580866130069,-2.6706254629971227e-06,-2.7143623810843565e-06
-5.3128907893551514e-05,4.349339633336058e-06,1.2625144336197991e-05
-7.904144877102226e-05,1.4235605704016052e-05,4.285691466066055e-05
-0.00023050812887959182,2.2766293113818392e-05,8.303891081595793e-05
-0.0003379876434337348,2.207760189776309e-05,0.00011354194430168718
-0.00032180326525121927,3.073514790230547e-06,0.00010612504411255941
-0.00019604861154220998,-2.9807608370902017e-05,6.600543565582484e-05
2.7248990591033362e-05,-5.614762267214246e-05,3.282000034232624e-05
0.00023054098710417747,-5.886807412025519e-05,2.8806569389416836e-05
0.0002470961189828813,-4.203654680168256e-05,4.1007639083545655e-05
0.00012136236182413995,-2.2054504370316863e-05,5.1491140766302124e-05
6.26751352683641e-05,-1.0882873539230786e-05,5.502453859662637e-05
0.00016920235066208988,-8.029830496525392e-06,4.7162633563857526e-05
0.00028313230723142624,-6.35368542134529e-06,3.223820385755971e-05
0.00024431449128314853,-3.868182830046862e-06,2.794648753479123e-05
0.00015435805835295469,6.578663374057214e-07,3.5054603358730674e-05
0.00012797972885891795,5.0438711696187966e-06,4.1649538616184145e-05
0.00016121880616992712,5.608820174529683e-06,4.165715290582739e-05
0.00017839876818470657,4.677467131841695e-06,2.8813354219892062e-05
0.00010620123066473752,2.294433443239541e-06,8.10418714536354e-06
-2.5095582714129705e-06,9.188041758534382e-07,-9.525648238195572e-06
-4.718136915471405e-05,4.043090029881569e-06,-2.2092523067840375e-05
-6.204386863828404e-06,1.0708678928494919e-05,-2.9280321541591547e-05
3.52221068169456e-05,1.4378096238942817e-05,-3.620269853854552e-05
2.7878499167854898e-05,1.6183481420739554e-05,-4.5965945901116356e-05
2.9199293649639912e-08,1.9299783161841333e-05,-5.624497862299904e-05
-2.3918828446767293e-05,2.0900773961329833e-05,-5.761803549830802e-05
-4.110654117539525e-05,1.912537481985055e-05,-4.963140600011684e-05
-3.775755249080248e-05,1.65677865879843e-05,-4.12784174841363e-05
-1.8926701159216464e-05,1.497086850577034e-05,-2.7863365176017396e-05
-2.3235092157847248e-05,1.3817261788062751e-05,-6.225013294169912e-06
-5.708029857487418e-05,1.091829744837014e-05,1.4359657143359073e-05
-5.3800551540916786e-05,6.615440270252293e-06,2.2908003302291036e-05
3.117097730864771e-05,4.982691734767286e-06,2.142204721167218e-05
0.0001418070460204035,5.403570867201779e-06,1.7248568838112988e-05
0.0002025708236033097,4.421902758622309e-06,1.4370053577295039e-05
0.0002001286920858547,1.2156565389886964e-06,1.9567884010029957e-05
0.00017230771481990814,3.886051672452595e-06,4.5063323341310024e-05
0.00015465177420992404,1.5023235391709022e-05,8.071015327004716e-05
0.0001584904093760997,1.877987597254105e-05,8.908331801649183e-05
0.00010457123426022008,4.220541541144485e-06,6.050707452232018e-05
-0.00011395097681088373,-2.049958311545197e-05,2.5211462343577296e-05
-0.0003876193368341774,-4.4736625568475574e-05,1.25430835851148e-06
-0.0005703116185031831,-5.45499860891141e-05,-3.5677087453223066e-06
-0.000507020391523838,-4.218443064019084e-05,2.734771442192141e-05
-0.00022432477271649987,-1.7934375136974268e-05,7.051817374303937e-05
3.0882015380484518e-06,9.99705434878706e-07,8.514145156368613e-05
0.00011247548536630347,8.083092325250618e-06,7.037050818325952e-05
0.00011379762145224959,5.7540023590263445e-06,4.072239244123921e-05
8.191427332349122e-05,-5.252579526882073e-08,1.5795636500115506e-05
6.754686910426244e-05,-2.7751441393775167e-06,8.022521797101945e-06
4.8555586545262486e-05,1.951734020622098e-06,1.3671986380359158e-05
-3.690433004521765e-06,7.675332199141849e-06,1.4918653505446855e-05
-7.562014798168093e-05,6.2776257436780725e-06,9.154952067547129e-07
-0.00012717182107735425,1.0437720447953325e-06,-1.3404629498836584e-05
-0.00010804145131260157,-4.831427304452518e-06,-2.5024046408361755e-05
-1.0917026884271763e-05,-9.801182386581786e-06,-3.8178062823135406e-05
8.687753870617598e-05,-1.1801666005339939e-05,-4.518197965808213e-05
0.00011271691619185731,-9.47003354667686e-06,-3.901445961673744e-05
5.172774399397895e-05,-2.329388735233806e-06,-2.4688082703505643e-05
-7.976885171956383e-06,7.258880032168236e-06,-1.2622140275198035e-05
2.253213824587874e-05,1.0652545824996196e-05,-1.1764846021833364e-05
0.0001366314827464521,5.762259661423741e-06,-2.3959992176969536e-05
0.00018998135055880994,5.1949854196209344e-08,-4.720989818451926e-05
7.802355685271323e-05,2.977917290536425e-07,-6.834021769464016e-05
-0.00013478926848620176,5.5141435950645246e-06,-5.8360172261018306e-05
-0.00026806251844391227,1.3356516319618095e-05,-1.4596894288843032e-05
-0.00020379286434035748,2.3814442101866007e-05,3.259737786720507e-05
-3.650009603006765e-05,2.541991307225544e-05,6.281292007770389e-05
6.287570431595668e-05,1.524928848084528e-05,7.141155219869688e-05
6.0710641264449805e-05,6.244533324206714e-06,7.033613655949011e-05
-8.028810407267883e-05,-3.6459041439229622e-06,6.661203951807693e-05
-0.000230348581681028,-1.3894987205276266e-05,5.12840852024965e-05
-0.0003043011820409447,-1.6472940842504613e-05,3.1477615266339853e-05
-0.0002866963914129883,-1.2480599252739921e-05,1.1716892913682386e-05
-0.00012293158215470612,-1.0816394024004694e-05,-1.049852289725095e-05
7.058671326376498e-05,-1.5325751519412734e-05,-2.1482414013007656e-05
0.00017359522462356836,-1.697579318715725e-05,-1.8000022237174562e-06
0.00011672496475512162,-1.0880970876314677e-05,3.711987301358022e-05
2.6733312552096322e-05,-4.140630153415259e-06,5.836748096044175e-05
4.2084651795448735e-05,-4.32020806329092e-06,4.72982537758071e-05
0.00010619856038829312,-1.1018180885002948e-05,2.661907819856424e-05
0.00011052090849261731,-2.088652217935305e-05,9.094293091038708e-06
0.0001016923924908042,-2.713183312152978e-05,-8.699636055098381e-06
0.0001750519295455888,-2.451641921652481e-05,-1.6769005014793947e-05
0.0002834145270753652,-1.33075282064965e-05,-9.678007700131275e-06
0.0003304331621620804,4.6934431452427816e-08,1.3576606079368503e-06
0.00032979718525893986,8.498283932567574e-06,6.655097422481049e-06
0.000297500315355137,8.538944712199736e-06,8.937598067859653e-06
0.0001509396533947438,2.107032059939229e-06,2.1186588128330186e-06
-6.840475543867797e-05,-5.348558715922991e-06,-1.820617944758851e-05
-0.0001483041123719886,-7.984222065715585e-06,-3.9680759073235095e-05
-7.597137300763279e-05,-1.7678388530839584e-06,-4.851806443184614e-05
-4.3828953494085e-05,7.690290658501908e-06,-4.403883212944493e-05
-0.00010540009679971263,1.0256783752993215e-05,-3.960436151828617e-05
-0.00018757216457743198,5.880182470718864e-06,-4.3002313759643584e-05
-0.0002866541617549956,3.3137037007691106e-06,-3.9384482079185545e-05
-0.0004504088719841093,3.7007255286880536e-06,-2.2029542378732003e-05
-0.0005304763908497989,7.1366139309247956e-06,9.420841706742067e-07
-0.0002396374911768362,1.2911266821902245e-05,1.3635885807161685e-05
0.00034299088292755187,1.659027475398034e-05,1.5085071026987862e-05
0.0006614661542698741,1.780192724254448e-05,2.4368742742808536e-05
0.00047916852054186165,1.845248152676504e-05,3.8918809877941385e-05
0.00011205772898392752,1.7999322153627872e-05,5.369512291508727e-05
-0.00013721284631174058,1.2564140888571274e-05,5.9866146330023184e-05
-0.000234531398746185,1.8249990034746588e-06,5.979454726912081e-05
-0.00028325681341812015,-1.0406065484858118e-05,6.253232277231291e-05
-0.00035675292019732296,-1.6655951185384765e-05,7.239943806780502e-05
-0.0003882170422002673,-1.3407131518761162e-05,9.09389927983284e-05
-0.0002558332635089755,-7.5530028880166356e-06,0.00010322775051463395
2.4774619760137284e-06,-8.626464477856643e-06,9.420642163604498e-05
0.00018840187112800777,-1.3233223398856353e-05,7.067569822538644e-05
0.00018113540136255324,-1.1763273505493999e-05,5.376099215936847e-05
8.520827395841479e-05,-3.127049467366305e-06,5.009815140510909e-05
6.767337617930025e-05,4.851585345022613e-06,5.130904901307076e-05
0.00015674688620492816,5.547127329919022e-06,4.6174754970707e-05
0.0002462840056978166,-8.975083574114251e-07,3.378195469849743e-05
0.0002796817570924759,-8.51800632517552e-06,2.0784229491255246e-05
0.0002678090531844646,-9.616463103157002e-06,1.2948566109116655e-05
0.00022686216107103974,-6.963560736039653e-06,5.033315119362669e-06
0.00020669642253778875,-5.591220542555675e-06,-1.2150917427788954e-05
0.0002221714094048366,-9.598330507287756e-06,-3.5442906664684415e-05
9.266851702705026e-05,-1.5122808690648526e-05,-5.1542683650041e-05
-0.00023104363935999572,-1.3761838999926113e-05,-5.3565545385936275e-05
-0.00037707286537624896,-8.76826379681006e-06,-4.230057311360724e-05
-0.00021453746012412012,-9.00203303899616e-07,-2.8034886781824753e-05
-3.6252909012546297e-06,8.234386768890545e-06,-2.0391904399730265e-05
7.694347732467577e-05,1.2891181540908292e-05,-1.798156154109165e-05
-4.0815437387209386e-05,1.3819324522046372e-05,-1.880246418295428e-05
-0.00021324105910025537,1.4902761904522777e-05,-5.078800313640386e-06
-0.0002783117233775556,1.9628056179499254e-05,3.013067544088699e-05
-0.00019372778479009867,2.3626686015632004e-05,6.20072241872549e-05
2.3540673282695934e-05,2.3446791601600125e-05,7.322916644625366e-05
0.00025898226886056364,2.010999378398992e-05,5.8583620557328686e-05
0.00034482224145904183,1.1838720638479572e-05,1.7750564438756555e-05
0.00020088754536118358,-2.2714734768669587e-06,-3.0941751901991665e-05
-2.2752941731596366e-05,-1.6027224774006754e-05,-5.209776645642705e-05
-0.00011693191481754184,-2.471643892931752e-05,-3.843634476652369e-05
-4.97659420943819e-05,-2.86160266114166e-05,-1.0650565855030436e-05
1.8285114492755383e-05,-2.7447133106761612e-05,1.9209963284083642e-05
-2.9258799258968793e-05,-2.2055952285882086e-05,4.664447988034226e-05
-0.00013219384709373116,-1.3544387002184521e-05,6.730150198563933e-05
-0.00016568994033150375,-2.2407837150240084e-06,7.886587991379201e-05
-6.4069899963215e-05,4.860300123255001e-06,7.759800064377487e-05
0.00010238221875624731,1.850138914960553e-06,6.781577394576743e-05
0.00014597242989111692,-4.06219442083966e-06,6.007090269122273e-05
2.306083115399815e-05,-7.33019805920776e-06,5.458039595396258e-05
-0.00013186564319767058,-1.2315055755607318e-05,4.652396819437854e-05
-0.0002653506235219538,-1.9756531401071697e-05,3.296554496046156e-05
-0.00032886708504520357,-2.2654585336567834e-05,1.5931685993564315e-05
-0.0001450477575417608,-2.0473647964536212e-05,9.039009114530927e-07
0.0001655444357311353,-1.704830901871901e-05,-2.0272912024665857e-06
0.00017738924361765385,-7.661139534320682e-06,2.929035645138356e-06
-5.051697735325433e-05,3.0049286579014733e-06,4.269629698683275e-06
-0.00011760108463931829,6.839044999651378e-06,-2.0428117295523407e-06
2.07250059247599e-06,8.846159289532807e-06,-1.3124781617079861e-05
0.00017038179794326425,1.1273915333731566e-05,-2.8544625820359215e-05
0.0003273160255048424,1.1149256351927761e-05,-4.281978908693418e-05
0.0003957926237490028,8.981978680822067e-06,-4.7998611989896744e-05
0.0003184124652761966,9.079405572265387e-06,-4.738658026326448e-05
0.00013905749074183404,9.789895557332784e-06,-4.413806163938716e-05
-5.79613697482273e-05,1.1473571248643566e-05,-3.6802412068936974e-05
-0.0002368883287999779,1.4056549844099209e-05,-2.343806772842072e-05
-0.00031010646489448845,1.5520199667662382e-05,-8.972200703283306e-06
-0.0002181029849452898,1.1539304068719503e-05,1.214998405885126e-06
-6.176835449878126e-05,4.891459866485093e-06,7.846496373531409e-06
3.48694265994709e-05,9.846767170529347e-07,1.263688591279788e-05
5.313525616656989e-05,2.197970388806425e-06,1.823435195547063e-05
2.5610646844143048e-05,9.514123121334706e-06,3.667001874418929e-05
-2.8369184292387217e-05,2.33414102694951e-05,7.380203169304878e-05
-9.092018444789574e-05,4.187488229945302e-05,0.00011396162153687328
-0.00013523462985176593,5.56969280296471e-05,0.00013560883235186338
-0.00014379536150954664,5.334832894732244e-05,0.00013068760745227337
-0.00010958618076983839,2.7590129320742562e-05,0.00010452921560499817
-2.0473897166084498e-05,-7.1279068833973724e-06,7.193857163656503e-05
0.00010869131801882759,-2.7368565497454256e-05,4.95867025165353e-05
0.00014131140778772533,-2.5222014301107265e-05,4.732345769298263e-05
-1.981812147278106e-06,-9.10924791241996e-06,6.141858466435224e-05
-0.00017670966917648911,6.8850199568259995e-06,7.297839329112321e-05
-0.0002270216791657731,1.4173187992128078e-05,7.020474731689319e-05
-7.249983173096552e-05,3.601319576773676e-06,5.56056183995679e-05
0.00015717039059381932,-2.4093455067486502e-05,2.496208435331937e-05
0.00031265095458365977,-4.954003088641912e-05,-1.5457344488822855e-05
0.00033585616620257497,-6.16587494732812e-05,-4.094134419574402e-05
0.0002668210363481194,-5.8110745158046484e-05,-4.6149154513841495e-05
0.00024529037182219326,-4.377131335786544e-05,-4.15353242715355e-05
0.00021095250849612057,-2.6903966499958187e-05,-3.615672903833911e-05
9.778377716429532e-05,-1.4319310139399022e-05,-3.0525377951562405e-05
-7.070208084769547e-05,-8.498701390635688e-06,-2.506196324247867e-05
-0.00016763749590609223,-8.000210982572753e-06,-3.086941069341265e-05
-0.00013456333545036614,-1.0383322660345584e-05,-4.6636469051009044e-05
-4.875094600720331e-05,-1.6835458154673688e-05,-6.318974192254245e-05
-8.202426215575542e-06,-2.023389060923364e-05,-7.126131094992161e-05
-4.48055325250607e-05,-1.4999961422290653e-05,-6.395836680894718e-05
-0.000116908093332313,-6.551500518980902e-06,-4.332380922278389e-05
-0.00015616817108821124,-2.734844201768283e-06,-2.1948069843347184e-05
-0.0001372923725284636,-4.807132427231409e-06,-1.1769751836254727e-05
-0.00011322050704620779,-5.967644483462209e-06,-1.2885126125183888e-05
-0.0001280477736145258,-2.7884018436452607e-06,-1.1906213330803439e-05
-0.00015076879935804754,3.9806277527532075e-06,1.3854226210696652e-07
-6.699304503854364e-05,9.548609341436531e-06,1.2128754860896152e-05
9.797439270187169e-05,1.0575745363894384e-05,1.9632672774605453e-05
0.00021018246479798108,9.735056664794683e-06,2.8806962291128002e-05
0.00019079551566392183,9.079924893740099e-06,4.127653664909303e-05
5.889476597076282e-05,9.244413377018645e-06,5.813980897073634e-05
-8.517393871443346e-05,1.2026098374917638e-05,7.205449946923181e-05
-0.00012117277219658718,9.840960956353229e-06,7.778353028697893e-05
-6.892075907671824e-05,1.8338096197112463e-06,8.13487422419712e-05
-2.1503250536625274e-05,-6.107117314968491e-06,8.271217666333541e-05
-4.5074644731357694e-05,-9.840991879173089e-06,7.915877358755097e-05
-0.00012048942153342068,-9.532081094221212e-06,7.687371544307098e-05
-0.00017927114095073193,-7.468478543160018e-06,7.5240881415084e-05
-0.0002105508028762415,-2.5878568976622773e-06,6.036058402969502e-05
-0.00015890478971414268,6.462277269747574e-06,4.741922384710051e-05
3.559229298844002e-05,1.6805292034405284e-05,4.925870234728791e-05
0.0002100464334944263,2.7587797376327217e-05,5.143521775607951e-05
0.0001058142224792391,3.272850517532788e-05,3.949258825741708e-05
-0.00018474494572728872,3.111374462605454e-05,2.6622950827004388e-05
-0.00032107788138091564,2.699766628211364e-05,2.820092413458042e-05
-0.00020939916430506855,1.700709617580287e-05,2.689623215701431e-05
-1.1656701644824352e-05,-4.006959898106288e-06,6.39764857623959e-06
0.00013718947593588382,-2.7480275093694218e-05,-2.311871139681898e-05
0.00029911851743236184,-3.8642021536361426e-05,-4.195535439066589e-05
0.0005408836877904832,-3.62437785952352e-05,-4.6732147893635556e-05
0.0006752071785740554,-2.4639899493195117e-05,-4.2051404307130724e-05
0.00047485646791756153,-1.0648727766238153e-05,-4.0505976357962936e-05
6.816280074417591e-05,-3.4945505831274204e-06,-5.321032949723303e-05
-0.00020643229072447866,-2.4162570753105683e-06,-6.368837057380006e-05
-0.00025665602879598737,1.4524042626362643e-06,-5.016192517359741e-05
-0.00018562264449428767,6.635295449086698e-06,-2.0278841475374065e-05
-3.418318010517396e-05,6.766476417396916e-06,7.944659046188463e-06
0.00012878568668384105,3.820890412953304e-07,1.5801590052433312e-05
0.00016980213695205748,-5.943963515164796e-06,1.4036202173883794e-06
9.563113417243585e-05,-4.161130163993221e-06,-1.4442091014643665e-05
2.4063816454145126e-05,-1.2989212336833589e-06,-2.70208329311572e-05
-5.185485861147754e-06,-5.239013262325898e-06,-3.204712629667483e-05
-3.0242577850003727e-05,-6.079334980313433e-06,-6.9723478191008326e-06
-6.985339132370427e-05,-1.8006966229222598e-06,3.1560874049318954e-05
-8.732450078241527e-05,1.9229041754442733e-06,4.6098779421299696e-05
-9.446407784707844e-05,1.7925020756592858e-06,4.3133244616910815e-05
-9.153542487183586e-05,5.537152901524678e-06,5.567127664107829e-05
-6.287621363298967e-05,1.0462794307386503e-05,8.715889271115884e-05
-8.046317816479132e-05,1.0491728971828707e-05,0.00011400895164115354
-7.497709157178178e-05,9.414518899575341e-06,0.00012266877456568182
6.051868695067242e-05,9.337813025922514e-06,0.00011457392247393727
0.0003221616498194635,1.125079234043369e-05,9.774402133189142e-05
0.0006279294029809535,1.2091786629753187e-05,7.807397923897952e-05
0.0008554319501854479,6.655489869444864e-06,5.397878703661263e-05
0.0008196158451028168,-5.588281965174247e-06,2.5741237550391816e-05
0.0004424813960213214,-1.661204623815138e-05,3.966751592088258e-06
-8.685826469445601e-05,-2.0524428691715002e-05,-5.82382836000761e-06
-0.0004863441863562912,-1.6971263903542422e-05,-1.001617874862859e-05
-0.0006912935059517622,-1.3218841559137218e-05,-1.567932849866338e-05
-0.0007734294631518424,-1.4111144992057234e-05,-2.4493938326486386e-05
-0.0006639406783506274,-1.5886913388385437e-05,-2.9155473384889774e-05
-0.0003853020607493818,-1.2558132766571362e-05,-1.972919562831521e-05
-0.00012773848720826209,-6.15904173173476e-06,-4.7105645535339136e-06
1.1413300171625451e-06,-7.9572015465601e-07,-4.020561391371302e-06
5.036388029111549e-05,2.9192003694333835e-06,-1.879417322925292e-05
0.00010048498370451853,6.223800937732449e-06,-2.660547397681512e-05
0.00013728067278862,1.0534258763073012e-05,-2.29976558330236e-05
0.00010741528240032494,1.5404917576233856e-05,-2.7045156457461417e-05
9.283156032324769e-06,1.4335323612613138e-05,-3.807125176535919e-05
-0.00013211760960984975,6.783565822843229e-06,-4.28474995715078e-05
-0.0002573149395175278,-1.8380012534180423e-06,-4.503722084336914e-05
-0.00031316568492911756,-4.92839353682939e-06,-3.714292324730195e-05
-0.0002939807891380042,3.1667991606809665e-06,-9.902923011395615e-06
-0.00029603674192912877,2.0005269107059576e-05,3.0148928999551572e-05
-0.0003101282345596701,3.513004048727453e-05,6.901967572048306e-05
-0.00023007395793683827,4.142013858654536e-05,0.00010268124606227502
-0.0001253373484360054,3.992476922576316e-05,0.00012940244050696492
-7.644829747732729e-05,3.1715910154161975e-05,0.0001337085705017671
-4.2572766687953845e-05,1.0135036063729785e-05,0.00010017679596785456
2.378646604483947e-05,-2.4537213903386146e-05,3.9593345718458295e-05
0.00011848811845993623,-5.4192958486964926e-05,-7.523468866565963e-06
0.0001937013294082135,-6.45448308205232e-05,-1.380583671561908e-05
0.00022392300888895988,-5.699164103134535e-05,1.2005820281046908e-05
0.00023540972324553877,-4.3262025428703055e-05,3.706392817548476e-05
0.00026739988243207335,-3.108542296104133e-05,4.4447489926824346e-05
0.0002709974651224911,-2.117049189109821e-05,3.876024129567668e-05
0.0001855221198638901,-1.2110565876355395e-05,2.746674363152124e-05
9.132565901381895e-05,-4.557708507491043e-06,1.6165384295163676e-05
8.690333197591826e-05,-2.77020006933526e-07,1.600030401505137e-07
0.00015749111480545253,-1.0943713135702637e-07,-2.375413168920204e-05
0.0003085417556576431,-2.687159394554328e-06,-3.798680336331017e-05
0.000461035204352811,-3.943951469409512e-06,-3.434348400332965e-05
0.0002928923349827528,-7.5438028943608515e-06,-2.9807710234308615e-05
-0.00013889255933463573,-1.4270114661485422e-05,-3.9437309169443324e-05
-0.00025187295977957547,-1.4038356312084943e-05,-4.6620181819889694e-05
-9.839953418122604e-05,-6.362118256220128e-06,-4.141208773944527e-05
-8.786395483184606e-05,1.6439057617390063e-06,-3.546859079506248e-05
-0.0001647523167775944,7.423161605402129e-06,-3.6146877391729504e-05
-0.00018653000006452203,1.604745557415299e-05,-3.140598346362822e-05
-0.00011640496086329222,2.215844506281428e-05,-1.5799074390088208e-05
-4.744457692140713e-05,2.3292977857636288e-05,-4.634560809790855e-06
-2.93059474643087e-05,1.9522709408192895e-05,-8.932262858252216e-07
-5.4238142183749005e-05,9.950733328878414e-06,-2.8851318347733468e-06
-5.4908214224269614e-05,3.094129466529871e-11,-5.481647349370178e-06
-2.8171678422950208e-05,-2.7706835226126714e-06,-4.432278899457742e-07
-1.6471647541038692e-05,1.1881876389452373e-06,1.3044906154391356e-05
-2.690676410566084e-05,4.179883489996428e-06,2.6131207050639205e-05
-1.3264210792840458e-05,3.6098060718359193e-06,3.407975964364596e-05
3.8763912016293034e-05,1.6955970068011084e-06,3.7229932786431164e-05
7.416976586682722e-05,4.69368023914285e-06,3.7616282497765496e-05
6.423156446544454e-05,1.0198968993790913e-05,3.4146298276027665e-05
3.232145172660239e-05,1.4017921785125509e-05,3.507411383907311e-05
4.145813363720663e-05,1.3529333045880776e-05,4.6949680836405605e-05
8.488781895721331e-05,7.026430012047058e-06,5.762527871411294e-05
0.00011544002336449921,9.419389357390173e-08,6.275046325754374e-05
0.00013299006968736649,1.9074277588515542e-06,7.019552867859602e-05
0.00017908115114551038,8.561985850974452e-06,7.714059029240161e-05
0.00022257675300352275,1.3579702681454364e-05,7.795509009156376e-05
0.0002526601019781083,1.6777818018454127e-05,6.881351146148518e-05
0.00022912165150046349,2.4270335416076705e-05,5.603092358796857e-05
5.14622479386162e-05,3.5143577406415716e-05,6.288799340836704e-05
-0.0002484324504621327,4.155144051765092e-05,8.796080510364845e-05
-0.0004944034153595567,3.518501034704968e-05,0.00010667698370525613
-0.000721236749086529,2.0475492419791408e-05,0.00010692788782762364
-0.0009268749854527414,7.677784196857829e-06,9.62812191573903e-05
-0.0007455141167156398,-5.49563264939934e-06,7.073760934872553e-05
-9.26638676901348e-05,-2.7429014153312892e-05,1.034914475894766e-05
0.0005819135112687945,-5.718900865758769e-05,-6.736363866366446e-05
0.0008571770740672946,-7.334555266425014e-05,-0.00012118467566324398
0.0006830194033682346,-6.323479465208948e-05,-0.00012784729187842458
0.0003135515726171434,-3.952447514166124e-05,-0.00010559619113337249
5.1567658374551684e-05,-2.4370321625610813e-05,-9.229250281350687e-05
1.6616195352980867e-05,-2.07597367989365e-05,-9.891136141959578e-05
5.914411667617969e-05,-2.117254371114541e-05,-0.00011143265874125063
-9.988791134674102e-06,-1.920436079672072e-05,-0.00010518264753045514
-0.00019238276581745595,-1.3586489330918994e-05,-7.320421718759462e-05
-0.00031557620968669653,-6.652230695181061e-06,-3.1399245926877484e-05
-0.0002463616547174752,5.358616022022034e-07,-1.0973908501910046e-06
-2.8685435609077103e-05,9.370106454298366e-06,1.1010124580934644e-05
0.00017594460223335773,1.77743895619642e-05,1.1288261703157332e-05
0.0001982788380701095,2.226573633379303e-05,1.26620843730052e-05
1.292860815738095e-05,2.1543033653870225e-05,2.3716978830634616e-05
-0.00017897797806654125,1.492853607487632e-05,4.0315640944754705e-05
-0.00016315096581820399,3.2776849820947973e-06,4.778403672389686e-05
2.7281335860607214e-05,-1.3146883247827645e-05,4.2153562390012667e-05
0.00020494098134804517,-2.5280472982558422e-05,4.3391180952312425e-05
0.00021458110131789,-2.5090806957450695e-05,6.443180609494448e-05
0.00012650051212403923,-1.5967701983754523e-05,9.12263203645125e-05
0.00017469996237196028,-3.0387870992854005e-06,0.00012102779146516696
0.0003157284518238157,1.1556709068827331e-05,0.00015098502626642585
0.0003312448097858578,2.014331766986288e-05,0.0001542646496091038
0.0002383657993050292,1.874481858976651e-05,0.00012183452054159716
7.353465480264276e-05,1.1627528692770284e-05,7.372470281552523e-05
-0.00014741324412170798,-3.282264628978737e-07,2.7415801014285535e-05
-0.0003242906532250345,-1.5294473996618763e-05,-1.1083715435233898e-05
-0.0003106153744738549,-2.1020639906055294e-05,-2.42447349592112e-05
-0.00017736277368385345,-1.3649685570271686e-05,-9.962120202544611e-06
-9.429294004803523e-05,-3.669447778520407e-06,6.986697371758055e-06
-7.183104753494263e-05,2.3242731117534277e-07,4.808151516044745e-06
-6.094216223573312e-05,4.192236531253002e-07,-5.753043751610676e-06
-7.127952267182991e-05,2.2495753455586964e-06,-8.680377504788339e-06
-0.00012228492414578795,4.051069936394924e-06,-1.0166348147322424e-05
-0.00017235602717846632,6.132897851784946e-06,-2.049116483249236e-05
-0.00019381011952646077,9.912743735185359e-06,-3.473677497822791e-05
-0.00021487839694600552,1.1745774827431887e-05,-4.6877365093678236e-05
-0.0002538237313274294,6.823745025030803e-06,-5.97368307353463e-05
-0.000198948138859123,9.706891290761632e-09,-6.928051880095154e-05
3.867413033731282e-05,-1.8654341147339437e-06,-7.057199400151148e-05
0.0003244002000428736,-1.8522810023569036e-06,-6.31830480415374e-05
0.0004076504264958203,-4.928751422994537e-06,-4.7003755753394216e-05
0.000250561919528991,-4.550662652036408e-06,-2.1586658476735465e-05
3.149894837406464e-05,1.7940283214556985e-06,1.1094049114035442e-05
-0.00010424610081827268,6.982819286349695e-06,3.869621650665067e-05
-0.00013445170770864934,1.0224459401797503e-05,4.569709926727228e-05
-8.445143612334505e-05,1.2286204764677677e-05,4.2130846850341186e-05
-1.3854098142473958e-05,1.004523983283434e-05,4.623824133886956e-05
8.783148950897157e-05,1.52203665493289e-06,5.6574386690044776e-05
0.00018841002020053566,-6.47564365863218e-06,6.724117702106014e-05
0.00027773960027843714,-5.723799404222518e-06,7.796348654665053e-05
0.00041998052620328963,2.7389078240958042e-06,8.61984008224681e-05
0.0005457390798255801,1.0895761079154909e-05,9.728629083838314e-05
0.0005523524014279246,1.4100142834649887e-05,0.00010643807036103681
0.00047571331379003823,1.114627048082184e-05,9.901309385895729e-05
0.00036854197969660163,4.470060957828537e-06,7.060106872813776e-05
0.00011704980715876445,-4.718305717688054e-06,3.8358317397069186e-05
-0.00020513923664111644,-1.5025894754217006e-05,2.0057110305060633e-05
-0.00036902332794852555,-1.643828727537766e-05,1.7474430933361873e-05
-0.0004194390494376421,-5.453833182400558e-06,2.6654015528038144e-05
-0.0006121679907664657,8.017487743927632e-06,3.52624811057467e-05
-0.0009430223144590855,1.6391146345995367e-05,4.275168976164423e-05
-0.0011166554177179933,2.149882129742764e-05,5.4642376198899e-05
-0.0010365580674260855,2.1841680791112594e-05,6.408573244698346e-05
-0.0007951320731081069,1.1136521607113536e-05,5.239293022896163e-05
-0.0003729273739736527,-4.857058229390532e-06,1.858851646829862e-05
0.00020511096226982772,-1.3821782886225265e-05,-1.2352875273791142e-05
0.000649698602501303,-1.0720124919316731e-05,-2.0695286366390064e-05
0.0007031569257378578,2.2346002879203297e-06,-1.7030424714903347e-05
0.000451199768576771,1.240955498360563e-05,-2.6184250600636005e-05
0.00026455381885170937,1.1665046258713119e-05,-4.8939276894088835e-05
0.0003020860021933913,1.0239132279821206e-06,-7.547425775555894e-05
0.000338943355018273,-1.8032533262157813e-05,-0.00010425897926324978
0.00021002828725613654,-3.1364968890557066e-05,-0.00011659553274512291
4.536596406978788e-06,-2.5089231712627225e-05,-9.917976422002539e-05
-0.00019916777091566473,-1.6327336197718978e-05,-7.519134669564664e-05
-0.00039636975270695984,-1.9957991753472015e-05,-6.0629270592471585e-05
-0.00032912884489633143,-2.108162698277738e-05,-4.475918103707954e-05
9.349102765554562e-05,-1.0472689609741792e-05,-2.445202335366048e-05
0.0004557399661280215,2.879188514270936e-06,-3.2840139283507597e-06
0.00043068945524282753,1.4027403267391492e-05,2.4322485842276365e-05
0.00014095556980464607,2.3387039618683048e-05,5.367650373955257e-05
-0.00011158404231537133,2.584969115559943e-05,6.565251533174887e-05
-0.00021634860604535788,1.4745528460480273e-05,5.32108242623508e-05
-0.00019428014638833702,-1.063547551893862e-05,2.8018837838317268e-05
-8.230188541347161e-05,-3.6715347960125655e-05,1.0314465725969058e-05
5.601447628578171e-05,-4.7361641918541864e-05,1.6398009393014945e-05
0.00015361302939709276,-4.326060297898948e-05,3.8941652746871114e-05
0.0001671542413532734,-3.541642217896879e-05,5.7020697568077594e-05
0.0001314905093749985,-2.646874781930819e-05,6.532822590088472e-05
9.131120896199718e-05,-1.6014697393984534e-05,6.851699436083436e-05
5.1930528570665047e-05,-8.52464927447727e-06,6.54360483167693e-05
2.17186948248127e-06,-4.842309408559231e-06,5.902900011278689e-05
-4.141234603594057e-05,-3.955382908316096e-06,5.4317948524840176e-05
-5.184274778002873e-05,-5.088312263978878e-06,4.957045894116163e-05
-4.66127967229113e-05,-5.876218892808538e-06,4.834901847061701e-05
-5.522444553207606e-05,-6.69209475745447e-06,5.1301565690664575e-05
-5.762463479186408e-05,-6.961399776628241e-06,4.545960109680891e-05
-3.4916338336188346e-05,-2.6522643565840553e-06,2.2166272174217738e-05
-2.9652284865733236e-05,5.3919775382382795e-06,-1.2276605048100464e-06
-8.434835763182491e-06,1.3203193702793214e-05,-1.840463937696768e-06
7.235811790451407e-05,1.617359885131009e-05,-1.9459723716863664e-06
0.00013845665671397,1.3854302778781857e-05,-1.768989022821188e-05
0.0001712249213596806,1.6065931049524806e-05,-2.1301611923263408e-05
0.00022216989600565284,2.396974196017254e-05,-2.0878333089058287e-06
0.0002823425456881523,2.5926063244696707e-05,9.216523721988779e-06
0.0002409067819826305,1.8751423340290785e-05,-1.6086455616459716e-06
3.016100890818052e-06,1.3697882423002739e-05,-2.658285211509792e-06
-0.0003231966693419963,1.9329600036144257e-05,2.1784722775919363e-05
-0.0004042017681058496,2.881320506276097e-05,4.624605207936838e-05
-0.00013955144095234573,2.9381626518443227e-05,4.3257459765300155e-05
0.00014471534814219922,1.6448302631033584e-05,7.362799351540161e-06
0.00024055468384176493,-7.726413969066925e-06,-4.4553831685334444e-05
0.0002428800071356818,-3.548410313669592e-05,-8.602593879913911e-05
0.00024569578818045557,-5.1224473281763494e-05,-9.007509652292356e-05
0.00014390051364898682,-4.83694821014069e-05,-5.377613706514239e-05
-0.00011200737208127975,-3.2611478673061356e-05,-6.552504601131659e-06
-0.00032864068634808064,-1.4738636309630238e-05,2.533909173507709e-05
-0.0003688528959173709,-6.1922564782435074e-06,3.851269866572693e-05
-0.0003209089336451143,-8.49739990371745e-06,3.7871268432354555e-05
-0.0002841054811142385,-1.2415202036208939e-05,3.655558612081222e-05
-0.0002736645401455462,-8.761790013522841e-06,5.1130216888850555e-05
-0.00020350106933619827,-5.946215537733224e-07,7.0350848545786e-05
-2.620648047013674e-05,2.243060635009897e-06,7.407860539387912e-05
0.00012218031042721123,1.0563866226220853e-06,5.9789628721773624e-05
0.0001307582570007071,5.827716336170852e-07,3.22528685501311e-05
8.276745211333036e-05,-1.948191510336983e-07,5.700021574739367e-06
8.854972838889807e-05,6.99440533935558e-07,3.5070877402176848e-06
8.753946895012632e-05,6.790688075852813e-06,1.677100226515904e-05
3.970400575781241e-05,1.3322784070624039e-05,2.7299409339320846e-05
-2.5928504328476265e-05,1.3519819731300231e-05,2.4816126824589446e-05
-7.889342668931931e-05,9.911397683026735e-06,6.651863259321544e-06
-9.58994569373317e-05,6.824471256550169e-06,-9.869880159385502e-06
-6.766094884369522e-05,1.2505718132160837e-06,-1.862619501480367e-05
1.921401417348534e-05,-3.7117395095265238e-06,-2.1216252207523212e-05
0.00010449894762132317,-3.3747592169675045e-06,-2.2455053112935275e-05
0.0001043404481606558,-7.795691772116697e-07,-2.672326263564173e-05
3.738042141776532e-05,5.1300457926117815e-06,-3.21978259307798e-05
-1.9785420590778813e-05,1.1711535080394242e-05,-3.871209264616482e-05
-8.116777462419122e-05,1.6033782230806537e-05,-4.062073276145384e-05
-0.00017584511078894138,1.9291608623461798e-05,-2.9874947358621284e-05
-0.00022784172324463725,2.042886262643151e-05,-1.1325966625008732e-05
-0.0001529231230961159,1.7353924704366364e-05,5.1960255404992495e-06
8.39418044051854e-06,1.2343774869805202e-05,1.4823014680587221e-05
0.00014324201038107276,8.618666470283642e-06,2.0618472262867726e-05
0.00018040223221760243,6.6797038016375154e-06,2.8519683837657794e-05
0.00010263695730827749,6.2603144215245266e-06,4.083647218067199e-05
-1.4133431250229478e-05,5.272223006613785e-06,5.7096236560028046e-05
-1.142462861025706e-05,8.022259407880483e-07,6.993587157921866e-05
0.0001587941951584071,-7.995434316399042e-06,6.546350778080523e-05
0.0003344233555253595,-1.627913661650382e-05,4.628877286450006e-05
0.00031586657860316336,-1.632311978028156e-05,3.813282819464803e-05
0.00014032104809302837,-1.3792516256216913e-05,4.8824855184648186e-05
5.4264961363514885e-05,-1.560814052936621e-05,5.915402653045021e-05
0.0001202450948767364,-1.908276135509368e-05,6.452539673773572e-05
0.00015004257147666067,-2.062685598502867e-05,6.75693154335022e-05
7.183422712842003e-05,-1.8458094928064384e-05,7.130318408599123e-05
-4.689647175837308e-05,-1.3419901733868755e-05,7.443188951583579e-05
-0.00014778469630982727,-9.913797839544713e-06,6.305231363512576e-05
-0.0001621842966414988,-1.0853909770958126e-05,4.0243427065433934e-05
-0.00011733988503692672,-1.0363804904045537e-05,2.5860603273031302e-05
-9.613862494006753e-05,-5.778476406703703e-06,3.309702151454985e-05
-0.00012415586388669908,4.634005108528072e-06,4.631167757906951e-05
-0.000213287043152377,1.5638754121027887e-05,4.713662565336563e-05
-0.00036927100154571235,2.3864808099460788e-05,2.828611650329549e-05
-0.00045750653953291476,2.731051245064009e-05,2.083929075524793e-06
-0.00032277623540721834,2.4849361579981633e-05,-1.4675399143015966e-05
3.052557076443918e-05,2.1828842363902368e-05,-1.9288612747914158e-05
0.0003931148676201701,1.4801079487369861e-05,-1.9772944142459892e-05
0.0004688158514909446,-4.046157300763298e-06,-2.834966653608717e-05
0.0002020406973315403,-2.603204848128371e-05,-4.326583803049289e-05
-0.0001131852695834823,-3.314734931336716e-05,-5.560634599532932e-05
-0.00014606786135118455,-2.712997047638055e-05,-6.077561920392327e-05
8.909773896448314e-05,-2.089791450998746e-05,-5.440915992949158e-05
0.0003285137645434588,-1.8896285837399773e-05,-3.610830390243791e-05
0.00039426577859558165,-1.9799568690359592e-05,-2.110780587827321e-05
0.0002864738053176552,-2.419758493488189e-05,-2.1782385374535806e-05
0.00012914350372739136,-2.423282239760738e-05,-2.9382636057562195e-05
4.519299909588881e-05,-1.5296953279175796e-05,-2.5780640498851426e-05
5.810786205984186e-06,-5.8200980674882885e-06,-5.0011544772132766e-06
-3.1281228984880727e-06,-6.194564434736094e-07,2.423668593110051e-05
3.205973553122021e-05,7.670319064345676e-07,4.6810069761704654e-05
5.107116885483265e-05,3.156680463689554e-07,6.151665729703382e-05
4.5271885028341785e-05,1.4256236227083718e-06,7.503241795348004e-05
3.214823664166033e-05,2.3076950128597673e-06,8.214625268010423e-05
1.413731024513254e-05,3.0434055133810034e-06,7.572777394670993e-05
2.3661486920900643e-05,3.4764050269586733e-06,7.323268073378131e-05
4.417484160512686e-05,7.052067303447984e-06,8.546113531338051e-05
6.241453957045451e-05,1.7166144971270114e-05,0.00010623571870382875
0.00012048768257955089,2.6271411115885712e-05,0.00011841891682706773
0.00021955255942884833,2.3007052732282318e-05,0.00010038878826890141
0.00025357725098729134,5.910621894145152e-06,5.463340494316071e-05
8.806041296338663e-05,-1.2504239748523105e-05,1.0611869583954103e-05
-0.00023476601927541196,-2.3006021365290508e-05,-9.629420674173161e-06
-0.0004628081223927438,-2.049038994300645e-05,-5.405437377703493e-07
-0.00048764358507469296,-8.38713731354801e-06,3.0637635063612834e-05
-0.00041376330773346126,5.823448191222269e-06,5.8473029639571905e-05
-0.0002996656112372875,1.4495009054371621e-05,5.993042577756569e-05
-0.0002113919472321868,1.2363133464532439e-05,3.7660203815903515e-05
-0.0002566154289525002,1.6881750752872904e-06,1.321734998782631e-05
-0.00034271975164301693,-5.392163984652143e-06,-1.3296337328938534e-06
-0.00022213264310266823,2.8144704629085027e-06,-3.664426003524568e-06
0.00012782361591234803,1.830531982704997e-05,-1.0891613783314824e-05
0.0004265240568201989,2.180263436457608e-05,-5.2714884077431634e-05
0.00039529806235805154,1.0578710316622164e-05,-0.00011688687663991004
6.715330528095365e-05,-3.8412576941482257e-07,-0.00013938611664343625
-0.00025654604542069137,-5.055401288700523e-06,-0.00010892178397625685
-0.0002488820464350283,-8.130548849294428e-06,-6.995705916779116e-05
0.00021746514539700001,-1.1492982594063506e-05,-4.81348906760104e-05
0.0007094474276527762,-1.1685264325933531e-05,-4.249819539836608e-05
0.0007601276156492531,-4.556176918413257e-06,-3.061636016354896e-05
0.00042572239181026816,5.32706417288864e-06,-1.2980133760720491e-05
-3.2235759135801345e-05,1.2046290066791698e-05,1.780577036925024e-07
-0.0003996797022409737,1.460142811993137e-05,1.3942421901447233e-05
-0.000646326458081603,9.307304935646243e-06,2.1392783310147934e-05
-0.0006638140184804797,-1.5769155652378686e-06,2.1821228074259125e-05
-0.0004288633062969893,-1.1068657840951346e-05,1.6547626728424802e-05
-0.00014604242460336536,-1.5159514077822678e-05,1.703320594970137e-05
-3.401972207939252e-05,-1.4664187801827211e-05,2.9003214876865968e-05
-2.7993781259283423e-05,-1.5100626114872284e-05,4.521913069766015e-05
1.111767141992459e-05,-1.6665468137944117e-05,5.783846427220851e-05
7.59045869926922e-05,-1.4507792911899742e-05,6.351714546326548e-05
0.00010155625932384282,-8.910948963603005e-06,6.743802077835426e-05
8.11569407233037e-05,-2.206445060437545e-06,7.094628381310031e-05
2.559973108873237e-05,5.288125976221636e-06,7.277788245119154e-05
-6.240498623810709e-05,1.5327823348343372e-05,7.461666245944798e-05
-9.341780241811648e-05,2.704268081288319e-05,7.867469685152173e-05
-3.290875974926166e-05,3.8228936318773776e-05,8.161357254721224e-05
3.977096639573574e-05,4.3978714529657736e-05,7.727494812570512e-05
3.685573392431252e-05,3.576713424990885e-05,4.902528235106729e-05
6.530234531965107e-05,1.5493342289119028e-05,-1.0832159205165226e-06
0.000232109465287067,-2.4408459466940258e-06,-3.541046680766158e-05
0.000433464563684538,-1.5166502635111101e-05,-4.1913091990863904e-05
0.0004660479025915265,-2.4784330889815465e-05,-4.853104837820865e-05
0.0003192737640347332,-2.5513956643408164e-05,-5.4105057643027976e-05
8.297999011119828e-05,-2.4317898351000622e-05,-4.566937786876224e-05
-6.58786011626944e-05,-2.4939045033534057e-05,-3.708319127326831e-05
-0.0001237818505614996,-2.262424459331669e-05,-4.8216643335763365e-05
-0.0002359917270950973,-1.7612999727134593e-05,-6.948624650249258e-05
-0.00032925757113844156,-1.4383046618604567e-05,-8.081193664111197e-05
-0.00024541380116716027,-1.3027158274780959e-05,-6.955965363886207e-05
-3.8818012399133295e-05,-8.650104973639827e-06,-4.1609921026974916e-05
0.00010266921890433878,-4.74103944725357e-06,-1.833014357544016e-05
0.00012144692300353199,-2.6636969323590165e-06,-4.5550182221631985e-06
7.868323882576078e-05,-4.055661975144176e-06,7.153391379688401e-06
6.227317498996854e-05,-7.87884619057877e-06,1.9185496057616547e-05
9.248862625099719e-05,-8.819262802717276e-06,2.7973519536317326e-05
0.00011724212527042255,-6.047618626325857e-06,3.700994056998752e-05
8.957405952969566e-05,-1.0619653494359227e-06,5.2833293011644855e-05
3.1026251235743985e-05,2.426662376819877e-06,6.605365342693403e-05
-1.244670511368895e-05,3.219302016077563e-06,6.25795146333985e-05
-2.8780574211850762e-05,2.23805022869783e-06,5.430556848295964e-05
-2.9801190976286307e-05,3.0823457564110868e-06,6.256208871491253e-05
-1.3394860616244841e-05,6.4608930188114755e-06,8.558264380553737e-05
1.2040118235745467e-05,9.111224244406912e-06,0.00010275290696881711
2.8559014026541263e-05,6.911954187671654e-06,0.00010168604057980701
1.20158192657982e-05,2.663165787453181e-06,8.40362990857102e-05
-4.1156246879836544e-05,1.1801124344401615e-07,5.8764751884154975e-05
-9.361773118143901e-05,-1.4908521279721754e-06,3.848813139484264e-05
-0.000106319974293001,-7.476365908587468e-07,3.135798397124745e-05
-9.095645509660244e-05,3.0475468975055264e-06,3.200702849426307e-05
-8.880319364834577e-05,4.559058652375825e-06,3.553355054464191e-05
-0.00011287312372587621,4.772061402036343e-06,4.1992447222582996e-05
-0.00010899212793447077,5.810841230413644e-06,4.7047549742273986e-05
-8.791505388217047e-05,2.9385498692136025e-06,4.475015157368034e-05
-9.470769873587415e-05,1.5835546491871355e-06,3.7182420783210546e-05
-6.43978055450134e-05,8.92718253453495e-06,3.809099143836647e-05
5.327131657395512e-05,2.3319595129578374e-05,4.9894490075530484e-05
0.00022490471019409597,2.9256747438921593e-05,4.197502858005464e-05
0.0003089721722062677,1.7522452253615484e-05,-1.844855614763219e-05
0.00016997977218125015,-7.084133244461555e-07,-9.696487541077659e-05
-9.125182259595022e-05,-7.662122698093299e-06,-0.0001271797518711537
-0.00023077151854522526,-1.3342692000151146e-06,-0.00010768818901851773
-0.0001283467427128926,2.5089350401685806e-06,-7.573975744890049e-05
5.5481763411080465e-05,-3.1051465612108586e-06,-5.705000876332633e-05
0.0001658114924794063,-1.1433843610575423e-05,-4.690057539846748e-05
0.0002246040676254779,-1.3200286957726348e-05,-2.9606248062918894e-05
0.00024614675203338265,-8.74931902217213e-06,-6.352992386382539e-06
0.0001732358941808343,-3.968626970163314e-06,1.1299651305307634e-05
1.2626837815332692e-05,-1.0758735697891098e-06,2.11685892281821e-05
-0.0001602770935278386,8.204463597394351e-07,3.3021839044522494e-05
-0.00026859811623580754,-3.6071426166017773e-06,4.104020263184793e-05
-0.00023478182265534997,-1.5381068806163967e-05,3.1091185519471765e-05
-8.809431892586872e-05,-2.4535267584724352e-05,1.1745688425435219e-05
3.293197005405091e-05,-2.44060192926554e-05,1.5413637811434455e-05
8.201818855013698e-05,-1.8000913769355975e-05,4.612365592038259e-05
0.00011086757876910269,-1.1774645827244967e-05,7.016186282271519e-05
9.061225864570588e-05,-8.180558324966114e-06,7.653560169273987e-05
-1.1945179721806198e-05,-8.263333256763872e-06,7.966122211655602e-05
-0.00022111843281891197,-9.362896889797412e-06,8.210681698983535e-05
-0.0004140069358982146,-1.1920359611394815e-05,7.793981785653159e-05
-0.00048507185420021415,-1.14033600766561e-05,7.404600910376757e-05
-0.00043342914432287216,-7.247573194035795e-06,7.88364268373698e-05
-0.00017740413022693247,8.855992632561538e-07,8.507052552886307e-05
0.00025028991512954235,9.211683391185943e-06,8.598148997407407e-05
0.0006529914098791778,1.2215231436130125e-05,8.09049597592093e-05
0.0007735941326245666,2.0575682356138714e-05,7.953940803417936e-05
0.0005915607907809317,3.397325781406835e-05,8.10524434200488e-05
0.00029784112120978534,3.767579619307071e-05,6.294083141256124e-05
1.2677818631345872e-05,1.9768282072618604e-05,1.2017745575576555e-05
-0.00030274264281615615,-5.323759523889748e-06,-4.98523295391351e-05
-0.000488518038764596,-1.9747963960980996e-05,-9.492366370977834e-05
-0.00022898471797816455,-2.0692290490842424e-05,-0.0001133660989580676
0.0003335676447022706,-1.5154735592659563e-05,-0.00010500878124730662
0.0007456485764123499,-9.530018360237591e-06,-8.064573921728879e-05
0.0007673247018828988,-1.1151304533996154e-05,-7.062963413773105e-05
0.00043687628931365907,-2.1349282178562135e-05,-8.940082625485957e-05
-0.00013586768181994557,-2.992128429468721e-05,-0.00010739611752796918
-0.0006592880818061531,-2.975295683427248e-05,-9.556469740346074e-05
-0.0007848553359508514,-2.2273141439654864e-05,-6.217496411409229e-05
-0.0005370629951357841,-1.3128543287166394e-05,-2.7707827030098997e-05
-0.00023683483595959842,-8.780996722634882e-06,-7.051311968098162e-06
-0.00011973536311415955,-1.2068946489307564e-05,-8.112628165690694e-06
-0.000201445582206361,-1.5416244423249736e-05,-6.175671842356678e-06
-0.0003098115266766399,-1.4734167052665725e-05,1.3746594049734995e-05
-0.0003262929676566273,-9.187547220790293e-06,3.935994755011052e-05
-0.00026704807532951236,-2.96888998718714e-07,5.843391772941686e-05
-0.00016619790403638035,4.532834736892255e-06,6.413621304091066e-05
7.247758912853897e-05,1.4362997262651334e-06,5.807834168081172e-05
0.0003853344533126801,-3.986170895586838e-07,5.4606258345302194e-05
0.0004788571095559746,2.7186888473806903e-06,7.068282138789073e-05
0.000309145514620468,8.645062735013198e-06,9.457649139221758e-05
8.508580503985286e-05,1.1751132660720032e-05,0.00010242023563478142
-4.1410152334719896e-05,1.202826479129726e-05,9.437983680982143e-05
-0.00010530417057452723,1.4936950719857123e-05,8.243759657489136e-05
-0.00016131726442836225,1.9669640096253715e-05,7.387491496047005e-05
-0.0002342991647310555,2.0913856133120134e-05,6.92544927005656e-05
-0.00028892321279272437,1.8786717191687785e-05,6.750495231244713e-05
-0.00023903952387627214,1.3708957339986227e-05,6.484732148237526e-05
-8.913782949093729e-05,9.94898709905101e-06,5.80219020775985e-05
2.3809250706108287e-05,9.573907846061047e-06,4.103824176127091e-05
-2.8016306714562234e-06,9.934084118867759e-06,1.4308257050288375e-05
-0.00010462860518600792,1.1158424968016334e-05,-5.308956133376341e-06
-0.0001200416445499286,1.4840965377516113e-05,-5.676878572558053e-06
3.1415616831509396e-05,2.1865596863790415e-05,-4.740809345094021e-06
0.00027595111168920994,2.3420438083121553e-05,-2.9129256290616468e-05
0.0004320034640841186,1.3083236808597576e-05,-6.939318700460717e-05
0.00038682084414176643,3.008765077083808e-07,-8.986146713141352e-05
0.0002668535162229091,-8.027432158996817e-07,-7.956792251206934e-05
0.00023481249809265137,1.7046160110112396e-06,-6.482401659013703e-05
0.00024267382104881108,-2.6653169697965495e-06,-6.05690038355533e-05
0.00020667549688369036,-1.1374823770893272e-05,-5.698728273273446e-05
0.00012705479457508773,-1.9238914319430478e-05,-5.9636531659634784e-05
2.6315687136957422e-05,-2.2303542209556326e-05,-5.999132918077521e-05
-0.00011816393816843629,-1.843555219238624e-05,-3.4754459193209186e-05
-0.00025994269526563585,-1.1557561265362892e-05,1.1668871593428776e-06
-0.0002622789761517197,-3.846498657367192e-06,2.5498095055809245e-05
-0.00014700894826091826,-9.88552983471891e-07,3.542035847203806e-05
-1.2900155525130685e-05,-3.0902606340532657e-06,3.827835462288931e-05
8.264854113804176e-05,-7.062360509735299e-06,3.0279312341008335e-05
0.00016290716303046793,-9.240457075065933e-06,2.5480954718659632e-05
0.00026293881819583476,-3.984419436164899e-06,4.109222936676815e-05
0.00029655746766366065,3.940136139135575e-06,6.362798012560233e-05
0.00019714832887984812,9.15431428438751e-06,7.670940976822749e-05
8.079829422058538e-05,1.0704998203436844e-05,8.106553286779672e-05
3.3304942917311564e-05,1.1276868463028222e-05,8.42227746034041e-05
-2.0500167011050507e-05,1.0791972272272687e-05,8.801378862699494e-05
-0.00013109097199048847,7.054458819766296e-06,8.922351116780192e-05
-0.00024568525259383023,-4.0303427795151947e-07,8.73749449965544e-05
-0.00031243503326550126,-4.765047833643621e-06,9.116916044149548e-05
-0.00030431151390075684,-1.7348939991279622e-06,0.000101347359304782
-0.00016064950614236295,2.6269781301380135e-06,0.00010085953545058146
5.372562736738473e-05,2.777670715659042e-06,6.979440513532609e-05
0.00014228610962163657,-1.2686546142504085e-06,1.3571895578934345e-05
7.478002225980163e-05,-8.11469817563193e-06,-3.999490218120627e-05
7.73589636082761e-06,-1.6240379409282468e-05,-7.282444857992232e-05
7.351305248448625e-05,-2.2003847334417515e-05,-8.206232450902462e-05
0.0002456786169204861,-2.4521859813830815e-05,-7.047322287689894e-05
0.0003668969147838652,-2.593933641037438e-05,-6.0545946325873956e-05
0.00032257832936011255,-2.390248300798703e-05,-6.531416875077412e-05
0.0001768721267580986,-1.8271983208251186e-05,-7.400525646517053e-05
3.697969441418536e-05,-1.7109470718423836e-05,-6.805833254475147e-05
1.7917549257617793e-06,-2.1214191292528994e-05,-5.2047966164536774e-05
0.0001717855775495991,-1.9723169316421263e-05,-3.875181209878065e-05
0.0003375584783498198,-1.0273707630403806e-05,-2.1872465367778204e-05
0.00023452946334145963,-7.419921530527063e-06,-6.923085948074004e-06
-2.3274320483324118e-05,-1.1430426638980862e-05,2.5916883714671712e-06
-0.00022215844364836812,-7.630587788298726e-06,1.632705971132964e-05
-0.0003926409990526736,2.9529403491324047e-06,3.5341872717253864e-05
-0.00046539909089915454,1.1068683306802996e-05,4.8079593398142606e-05
-0.0003373835061211139,1.2682519809459336e-05,5.3565483540296555e-05
-0.00013118976494297385,1.0052591278508771e-05,6.275262421695516e-05
3.861342065647477e-06,5.741595032304758e-06,7.638328679604456e-05
-7.805506356817205e-06,3.1234853850037325e-06,8.404139225604013e-05
-8.886591967893764e-05,2.3469219740945846e-06,8.20361019577831e-05
-0.00012075786798959598,2.978795691888081e-06,7.164660200942308e-05
-3.4272499760845676e-05,5.056606369180372e-06,6.347851740429178e-05
9.016941476147622e-05,6.952599051146535e-06,6.441269943024963e-05
0.00011427666322560981,3.888410446961643e-06,5.825364132761024e-05
5.15153396918322e-06,-7.730741344857961e-06,3.1418294383911416e-05
-0.00011080871627200395,-1.9775310647673905e-05,3.2208256470767083e-06
-0.0001446700480300933,-2.0800382117158733e-05,-1.7098429907491663e-06
-0.00013874775322619826,-1.1994665328529663e-05,8.655117198941298e-06
-0.0001721565204206854,-9.387348427480902e-07,1.9850360331474803e-05
-0.00026388713740743697,7.661577910766937e-06,2.9813727451255545e-05
-0.00033579295268282294,1.0684560038498603e-05,3.8669993955409154e-05
-0.0003781252889893949,1.4849635590508115e-05,4.727512350655161e-05
-0.0003200730716343969,1.852755121944938e-05,4.978119977749884e-05
9.459803550271317e-06,1.5649280612706207e-05,3.266419662395492e-05
0.00034071141271851957,1.290391264774371e-05,8.215820344048552e-06
0.00024487116024829447,1.61233820108464e-05,-2.767968680927879e-06
-0.0001233626826433465,2.0418796339072287e-05,-6.536728960782057e-06
-0.0003105447394773364,1.8606668163556606e-05,-1.9083016013610177e-05
-0.00020069417951162905,5.76748152525397e-06,-4.9845915782498196e-05
-2.173919347114861e-05,-1.3254000805318356e-05,-8.212043030653149e-05
7.902702782303095e-05,-2.180604678869713e-05,-8.710637484909967e-05
0.00013354068505577743,-1.5774612620589323e-05,-6.42218510620296e-05
0.0002311341231688857,-6.533889518323122e-06,-3.743727575056255e-05
0.0003964539500884712,-5.8911882661050186e-06,-2.713480898819398e-05
0.0005612850072793663,-1.4729259419254959e-05,-3.106499571003951e-05
0.0005567138432525098,-2.022116314037703e-05,-3.092564293183386e-05
0.0003493771655485034,-1.1577586519706529e-05,-1.369059373246273e-05
0.00010506167018320411,6.0960405789955985e-06,1.2658545529120602e-05
-1.2648026313399896e-05,1.998880907194689e-05,3.299821401014924e-05
2.5249437385355122e-06,2.2900840122019872e-05,4.251117570674978e-05
6.616220343858004e-05,1.5078197975526564e-05,4.258812987245619e-05
0.00010597530490485951,1.3996224197398988e-06,3.366110468050465e-05
8.540401904610917e-05,-1.2475183211790863e-05,2.497499735909514e-05
7.0916944423515815e-06,-2.211239916505292e-05,3.421949804760516e-05
-7.94307270552963e-05,-2.292736098752357e-05,6.200812640599906e-05
-0.00010264552111038938,-1.5041479855426587e-05,8.325314411194995e-05
-8.074309153016657e-05,-8.845619959174655e-06,8.201241871574894e-05
-9.027729538502172e-05,-6.270380708883749e-06,7.752262899884954e-05
-0.00014992077194619924,-8.592692779529898e-07,8.473287743981928e-05
-0.0001404739887220785,4.70626400783658e-06,8.979604172054678e-05
-1.0532728083489928e-05,7.5262673817633186e-06,8.727748354431242e-05
0.00016021942428778857,1.4702754924655892e-05,9.208243136527017e-05
0.0003176196478307247,2.5452050977037288e-05,9.398814290761948e-05
0.0003926084900740534,2.4068309357971884e-05,6.434504030039534e-05
0.00032838076003827155,1.6225916624534875e-05,1.8946955606224947e-05
8.468449232168496e-05,1.1046331565012224e-05,-1.3716170542465989e-05
-0.0003241355298087001,4.434577476786217e-06,-3.479043152765371e-05
-0.0006505936617031693,2.428101879559108e-07,-4.1752424294827506e-05
-0.000656569201964885,2.9800080483255442e-06,-3.1183328246697783e-05
-0.0003370929625816643,6.991748705331702e-06,-2.1495397959370166e-05
4.556346175377257e-05,-3.920829101389245e-07,-3.634167296695523e-05
0.0002483693533577025,-1.807010266929865e-05,-6.583666981896386e-05
0.0002606219204608351,-3.123030182905495e-05,-7.589536107843742e-05
0.0001649456680752337,-3.105616997345351e-05,-5.780963692814112e-05
-1.0194017704634462e-05,-2.2304362573777325e-05,-3.271008245064877e-05
-0.00025721549172885716,-1.4012199244461954e-05,-2.053214848274365e-05
-0.00041847769170999527,-1.2970152056368534e-05,-2.6205543690593913e-05
-0.0003559766919352114,-1.5681798686273396e-05,-3.683803151943721e-05
-0.0001586172147653997,-1.2497061106842011e-05,-3.585630838642828e-05
1.2755098168781842e-06,-5.304688329488272e-06,-2.308390503458213e-05
6.704916449962184e-05,-2.752099135250319e-06,-1.100667032005731e-05
9.113230044022202e-05,-4.115075626032194e-06,-8.086323759926017e-06
0.00011429340520408005,-1.9344374777574558e-06,3.4016336485365173e-06
0.00011799959611380473,1.8073702676701942e-06,3.2831263524712995e-05
9.808895265450701e-05,3.6061608170712134e-06,6.135646253824234e-05
6.123243656475097e-05,5.007023901271168e-06,7.426818046951666e-05
2.555457831476815e-05,3.91843923353008e-06,6.954708806006238e-05
9.447986485611182e-06,4.531973161192582e-07,6.569374818354845e-05
2.339226375625003e-05,-5.092522883387574e-07,8.16936299088411e-05
3.278676012996584e-05,3.4018737551377853e-06,0.00010990806913468987
9.284448424295988e-06,9.561572369420901e-06,0.0001280962023884058
-3.2318344892701134e-05,1.651861020945944e-05,0.00012757717922795564
-5.852409594808705e-05,2.278266583743971e-05,0.00011574789823498577
-7.245391316246241e-05,2.4205211957450956e-05,9.54861388891004e-05
-9.677573689259589e-05,1.7233773178304546e-05,5.7096327509498224e-05
-0.00012090434756828472,4.693940354627557e-06,1.3934337403043173e-05
-0.00012266183330211788,-6.599709649890428e-06,-7.73303872847464e-06
-9.748237062012777e-05,-1.2710489500022959e-05,-9.960954230336938e-06
-6.119165482232347e-05,-1.2619128938240465e-05,-1.4196942174748983e-05
3.693569624374504e-06,-9.02132615010487e-06,-2.609904549899511e-05
0.00011157534754602239,-5.828161192766856e-06,-3.7917514418950304e-05
0.00020676740678027272,-4.5430460886564106e-06,-4.5483913709176704e-05
0.000196326756849885,-2.425951834084117e-06,-4.860828266828321e-05
7.515033212257549e-05,-6.454658887378173e-07,-5.270451947581023e-05
-7.258115510921925e-05,-3.51520088770485e-06,-6.115112773841247e-05
-0.0001793499250197783,-9.07790399651276e-06,-6.82218378642574e-05
-0.00020900530216749758,-1.0318274689780083e-05,-6.310005846899003e-05
-0.0001381709735142067,-6.846093583590118e-06,-5.148899799678475e-05
-2.016748476307839e-05,-3.1903716717351926e-06,-4.1484596295049414e-05
6.947090150788426e-05,-1.274183887289837e-06,-2.851709541573655e-05
0.00011056806397391483,-5.211634288571076e-07,-1.0968205060635228e-05
0.00011955769878113642,-1.3235256801635842e-06,1.5333772580561345e-06
0.00012573233107104897,2.0118002908020571e-07,7.418537279590964e-06
0.00017211867088917643,2.505696784282918e-06,6.829508038208587e-06
0.000197864806978032,-1.64943776326254e-06,-1.7446852780267363e-06
0.00015391952183563262,-3.572640252968995e-06,4.9307971039525e-07
0.00011054109199903905,-1.3139499515091302e-06,1.7814965758589096e-05
8.957031241152436e-05,-1.4926521316738217e-06,3.439413194428198e-05
8.199733565561473e-05,-2.909294380515348e-06,4.862040077568963e-05
6.791454507037997e-05,-3.4263393899891526e-06,6.04562483204063e-05
3.8355628930730745e-05,-1.17406386834773e-06,7.177498628152534e-05
9.1926804088871e-06,1.3467820281221066e-06,8.065086149144918e-05
-2.1732930690632202e-05,1.4128696648185723e-06,8.924647409003228e-05
-5.7689965615281835e-05,-9.912884024743107e-07,9.267483983421698e-05
-7.248231122503057e-05,-3.6165492929285392e-06,8.21907160570845e-05
-4.1612624045228586e-05,-1.9276617422292475e-06,6.600708002224565e-05
2.8144941097707488e-05,2.887370555981761e-06,5.6929391575977206e-05
7.278772682184353e-05,3.757239255719469e-06,5.544399391510524e-05
2.0427545678103343e-05,-2.3497684651374584e-06,5.089492697152309e-05
-0.00010558596841292456,-8.836672350298613e-06,4.3723957787733525e-05
-0.00020306542865000665,-8.546611752535682e-06,4.489571074373089e-05
-0.00021499958529602736,-1.4958820884203305e-06,6.0984864830970764e-05
-0.0001703570014797151,6.84348333379603e-06,7.476674363715574e-05
-0.00010935113823506981,1.4550537343893666e-05,6.63214668747969e-05
-5.14159764861688e-05,2.1397139789769426e-05,3.940629176213406e-05
-8.707242159289308e-06,2.3924794732010923e-05,1.3604973901237827e-05
4.176851871307008e-05,2.1785323042422533e-05,-3.876752998621669e-06
5.652124309563078e-05,1.6231311747105792e-05,-2.518626206438057e-05
-4.7475536121055484e-05,1.4416512385651004e-05,-5.594984759227373e-05
-0.00012733142648357898,1.912207699206192e-05,-7.518137863371521e-05
0.0001360200549243018,6.278499313339125e-06,-8.071486081462353e-05
0.0004978691576980054,-2.1450465283123776e-05,-9.799539839150384e-05
0.00038875124300830066,-3.610251224017702e-05,-0.00010848760575754568
-2.4081671654130332e-05,-3.5833450965583324e-05,-0.00010011502308771014
-0.00028805830515921116,-3.1746181775815785e-05,-9.214437886839733e-05
-0.0002503875002730638,-2.9197728508734144e-05,-8.053687633946538e-05
-1.6763771782279946e-05,-2.457108894304838e-05,-6.129749090177938e-05
0.0002278964384458959,-1.7745976947480813e-05,-4.3887350329896435e-05
0.0003110742545686662,-1.3008963833271991e-05,-4.1078252252191305e-05
0.00016000360483303666,-1.3931662579125259e-05,-3.899149305652827e-05
-5.8308385632699355e-05,-1.454576886317227e-05,-1.7500244211987592e-05
-0.00012856464309152216,-1.2061414963682182e-05,2.1333031327230856e-05
-5.219425293034874e-05,-6.972678420424927e-06,5.733733996748924e-05
1.887420512503013e-05,-2.537684849812649e-06,7.803080370649695e-05
8.684361091582105e-06,-4.362623826636991e-07,8.691277616890147e-05
-5.814269752590917e-05,-7.209260388663097e-07,9.418548143003136e-05
-0.00010985043627442792,-3.3054850518965395e-06,9.747599688125774e-05
-0.00010086926340591162,-5.766987214883557e-06,8.585250179748982e-05
-5.359683927963488e-05,-5.3455078159458935e-06,6.88646687194705e-05
-2.745773053902667e-05,-1.4404062085304759e-06,6.149253022158518e-05
1.2888763194496278e-05,6.79089282584755e-07,6.098094308981672e-05
0.00010633312922436744,-1.8256916973768966e-06,5.5023345339577645e-05
0.00013609758752863854,-2.5123206341959303e-06,4.69565529783722e-05
1.7692538676783442e-05,5.043972578278044e-06,4.9504284106660634e-05
-0.00010855309665203094,1.7858734281617217e-05,6.588335236301646e-05
-0.00011011675087502226,3.0009925467311405e-05,7.829123205738142e-05
-1.3454605323204305e-05,3.444429603405297e-05,7.004328654147685e-05
9.500759188085794e-05,3.411238867556676e-05,3.9547074266010895e-05
0.0002085170999635011,2.8757860491168685e-05,8.083887223619968e-06
0.0003321125404909253,2.1471470972755924e-05,-1.5540043023065664e-05
0.00028878977173008025,2.017997576331254e-05,-3.266071871621534e-05
-2.918571772170253e-05,2.3169535779743455e-05,-3.714032209245488e-05
-0.0004217737587168813,2.5785358957364224e-05,-3.847359766950831e-05
-0.0006540862959809601,2.7087999114883132e-05,-4.181801341474056e-05
-0.0006915481062605977,2.054808101092931e-05,-4.642004205379635e-05
-0.0005476298392750323,4.341507974459091e-06,-5.4482094128616154e-05
-0.0001263797894353047,-1.5112635992409196e-05,-5.976394459139556e-05
0.0004520700895227492,-3.505586209939793e-05,-5.785344183095731e-05
0.0008173657697625458,-5.522601350094192e-05,-5.389388752519153e-05
0.0006815387750975788,-6.91089007887058e-05,-5.311465429258533e-05
0.00020287542429286987,-6.456847040681168e-05,-4.2273899452993646e-05
-0.00013445087824948132,-4.365477434475906e-05,-1.2866464203398209e-05
-0.00016134537872858346,-2.0963349015801214e-05,2.3958104065968655e-05
-6.431717338273302e-05,-7.935751455079298e-06,5.699107714463025e-05
-1.5075155715749133e-05,-5.7877027757058386e-06,7.869639375712723e-05
-2.3954265998327173e-05,-7.49488344808924e-06,8.415921911364421e-05
-5.481185871758498e-05,-4.817108674615156e-06,8.289210381917655e-05
-5.561256330111064e-05,2.440709067741409e-06,8.949939365265891e-05
-1.6659561879350804e-05,5.428154963738052e-06,9.481661982135847e-05
2.8455462597776204e-05,3.503159717865856e-08,8.69432624313049e-05
4.664625885197893e-05,-5.250124104350107e-06,7.158380321925506e-05
5.203098044148646e-05,-4.046341928187758e-06,6.454653339460492e-05
4.5973429223522544e-05,2.792865643641562e-06,6.88877553329803e-05
3.2875657780095935e-05,7.586339961562771e-06,6.938755541341379e-05
2.2563885067938827e-05,1.1566137800400611e-05,6.258709618123248e-05
-9.942845281329937e-06,1.7781008864403702e-05,5.506020170287229e-05
-5.056162262917496e-05,2.2264588551479392e-05,4.975949923391454e-05
-5.7509212638251483e-05,2.4772887627477758e-05,5.0362425099592656e-05
-4.541668022284284e-05,2.7706324544851668e-05,5.6693235819693655e-05
-3.433469828451052e-05,2.851031968020834e-05,5.4153806559043005e-05
3.6819987144554034e-05,2.464755561959464e-05,3.2274725526804104e-05
0.00020698050502687693,2.0460412997636013e-05,8.38767573441146e-06
0.0004386520304251462,1.5006404282758012e-05,-1.0324048162146937e-05
0.0005919290124438703,7.416268999804743e-06,-3.3035248634405434e-05
0.0005252223345451057,1.941399432325852e-06,-5.593038076767698e-05
0.0002960482379421592,-1.8036155324807623e-07,-6.119468162069097e-05
-8.260451068053953e-06,-5.147249794390518e-06,-5.6079017667798325e-05
-0.00047734545660205185,-1.605388206371572e-05,-6.185772508615628e-05
-0.0010553068714216352,-2.464338467689231e-05,-6.980217585805804e-05
-0.0013560338411480188,-1.992244324355852e-05,-5.311840868671425e-05
-0.0010982180247083306,-3.167952172589139e-06,-1.7627698980504647e-05
-0.000435004651080817,7.50509207136929e-06,-1.7807253982482507e-07
0.00029959381208755076,6.759487405361142e-07,-2.159921859856695e-05
0.0008476373623125255,-1.3730618775298353e-05,-5.6745298934401944e-05
0.0010218500392511487,-2.113188929797616e-05,-5.813083043904044e-05
0.0007279529818333685,-1.787521250662394e-05,-1.892479122034274e-05
0.0001692583755357191,-8.81955747900065e-06,2.2663543859380297e-05
-0.0002659767633304,-2.8498780011432245e-06,3.674770414363593e-05
-0.0004098281206097454,-7.0542610046686605e-06,2.9659906431334093e-05
-0.00031468222732655704,-1.4027148608874995e-05,2.417242285446264e-05
-0.00012357719242572784,-1.260497811017558e-05,3.571254273992963e-05
3.819110497715883e-05,-3.313285787953646e-06,6.097415098338388e-05
9.713121107779443e-05,7.036854185571428e-06,8.988207264337689e-05
6.933574331924319e-05,1.5991028703865595e-05,0.0001091688682208769
5.7593584642745554e-05,2.157678500225302e-05,0.00010565242700977251
6.447174382628873e-05,2.01818020286737e-05,7.562139944639057e-05
1.4735578588442877e-05,1.0363196452090051e-05,4.064905806444585e-05
-6.828263576608151e-05,-2.290568772878032e-06,2.3123249775380827e-05
-0.00011503939458634704,-7.369080776697956e-06,2.0193909222143702e-05
-0.00019882977358065546,-6.811629191361135e-06,2.2935961169423535e-05
-0.00034755212254822254,-5.228808277024655e-06,3.1381670851260424e-05
-0.00044916511978954077,-3.779130565817468e-06,4.1900959331542253e-05
-0.0003635079483501613,-1.8162074866268085e-06,4.759241346619092e-05
-9.11717361304909e-05,-6.392000386767904e-07,4.224847725708969e-05
0.00017444467812310904,-3.2395550988439936e-06,2.1404535800684243e-05
0.0002713066933210939,-8.238137525040656e-06,-8.380515282624401e-06
0.0002556096587795764,-1.1078569514211267e-05,-3.1668438168708235e-05
0.0002749531122390181,-1.0250991181237623e-05,-4.965336120221764e-05
0.00029180306592024863,-9.358241186419036e-06,-7.582450052723289e-05
0.00017813935119193047,-1.0430308066133875e-05,-0.00010162672697333619
-4.949814865540247e-06,-9.318015145254321e-06,-0.00010084868699777871
-7.220749830594286e-05,-1.8441481870468124e-06,-6.464387843152508e-05
5.880336175323464e-06,7.028896561678266e-06,-1.9570217773434706e-05
0.00012242030061315745,1.1068319508922286e-05,7.394730801024707e-06
0.00015325738058891147,4.762031949212542e-06,4.59008197140065e-06
8.324012014782056e-05,-1.1328804248478264e-05,-2.3278054868569598e-05
1.0606995601847302e-05,-2.4112545361276716e-05,-4.7467103286180645e-05
-2.8694751108560013e-06,-2.4533295800210908e-05,-4.595869540935382e-05
1.9151651940774173e-05,-1.63943441293668e-05,-1.7703383491607383e-05
3.645345350378193e-05,-4.405948857311159e-06,1.5446357792825438e-05
5.068620521342382e-05,6.211632808117429e-06,3.338067472213879e-05
5.104110823594965e-05,1.3313553608895745e-05,4.53840839327313e-05
3.391633435967378e-05,1.7587832189747132e-05,6.124151695985347e-05
2.9228482162579894e-05,1.8140548490919173e-05,7.531343726441264e-05
-1.6271531421807595e-05,1.5840854757698253e-05,9.040690929396078e-05
-0.00016610822058282793,1.2514632544480264e-05,0.00011374877794878557
-0.0003381968999747187,6.055861376808025e-06,0.00012899001012556255
-0.00037659582449123263,-3.701278728840407e-06,0.00012321151734795421
-0.00028609606670215726,-1.0575457963568624e-05,9.917334682540968e-05
-0.00014620096771977842,-1.0149336048925761e-05,7.134886254789308e-05
4.223235373501666e-05,-5.832091574120568e-06,4.998871736461297e-05
0.00029565676231868565,-1.2309520798226004e-06,3.712678517331369e-05
0.0005250430549494922,2.4306764601078612e-08,2.8780928914784454e-05
0.0005868281004950404,-5.0031130740535446e-06,1.6429628885816783e-05
0.00048399087972939014,-1.4711930816702079e-05,-2.6995446660293965e-06
0.00030394154600799084,-2.2708829419570975e-05,-1.9371402231627144e-05
6.367697642417625e-05,-2.2066918972996064e-05,-2.8896594812977128e-05
-0.00019124301616102457,-1.325151515629841e-05,-3.216841287212446e-05
-0.0002320578641956672,-1.5015091321401997e-06,-2.3465088816010393e-05
-1.6582798707531765e-05,9.796605809242465e-06,-1.1265474313404411e-05
0.00021590296819340438,1.682200854702387e-05,-1.4865333469060715e-05
0.00030768042779527605,1.9093115042778663e-05,-3.334713255753741e-05
0.0002762263175100088,2.0070438040420413e-05,-4.3522763007786125e-05
0.00022312565124593675,1.5584222637698986e-05,-4.086516855750233e-05
0.00011663288751151413,5.650185812555719e-06,-4.477406764635816e-05
-0.0001524121908005327,-5.582531230174936e-06,-5.477775994222611e-05
-0.0004067014087922871,-1.1482225090730935e-05,-5.05952411913313e-05
-0.0004550049197860062,-1.098127722798381e-05,-3.1214749469654635e-05
-0.00036079625715501606,-1.3422229130810592e-05,-1.8092714526574127e-05
-0.0002522562281228602,-1.855211849033367e-05,-1.4981606909714174e-05
-0.00017141911666840315,-1.624109791009687e-05,-4.8213378249784e-06
-9.977846639230847e-05,-9.245609362551477e-06,1.1965157682425343e-05
-3.736043072422035e-05,-7.743710739305243e-06,3.1300511182053015e-05
6.754867354175076e-05,-1.1217369319638237e-05,4.866817107540555e-05
0.00020390561257954687,-1.0680754712666385e-05,6.368162576109171e-05
0.000302962027490139,-4.931457169732312e-06,7.722825830569491e-05
0.000292696466203779,6.254163054109085e-08,9.41833495744504e-05
0.0001650556514505297,9.007104040392733e-07,0.00011214660480618477
-2.221482282038778e-05,1.6095918908831663e-06,0.0001238070399267599
-0.00020635266264434904,5.079820766695775e-06,0.00012229981075506657
-0.0003154409641865641,5.714940471079899e-06,0.00010518910858081654
-0.0002877844963222742,2.545248207752593e-06,8.056820661295205e-05
-0.000157819056767039,-9.466184565098956e-07,5.626092752208933e-05
-8.504684956278652e-05,-3.657178922367166e-06,3.204457607353106e-05
-0.00016455711738672107,-5.328898623702116e-06,1.0807590115291532e-05
-0.0002948756446130574,-2.4745877453824505e-06,8.413247087446507e-06
-0.00031911523547023535,5.6505332395317964e-06,2.403958569630049e-05
-0.00024235525052063167,1.2723166946670972e-05,4.297128180041909e-05
-0.00017501447291579098,1.3750698599324096e-05,5.301191777107306e-05
-0.00012625956151168793,1.2779837561538443e-05,5.071876148576848e-05
1.893106491479557e-05,9.564774700265843e-06,3.7342524592531845e-05
0.00024106305500026792,1.7704983292787801e-06,1.0994939657393843e-05
0.00045162669266574085,-1.3423066775430925e-05,-4.670049384003505e-05
0.0004977050703018904,-2.7872987629962154e-05,-0.0001062562150764279
0.0002775452740024775,-2.868685442081187e-05,-0.00011818991333711892
-5.745095404563472e-05,-1.6599195078015327e-05,-0.00010161938553210348
-0.0003434107347857207,-3.3217356758541428e-06,-8.856724161887541e-05
-0.0005343834054656327,5.472381872095866e-07,-7.808912050677463e-05
-0.0005760111380368471,-1.0064871958093136e-07,-5.792921001557261e-05
-0.0003372324863448739,3.48038406627893e-06,-2.6139265173696913e-05
0.0001441075437469408,1.3545256479119416e-05,6.1026653384033125e-06
0.0005249943351373076,1.6807525753392838e-05,1.4475434909400064e-05
0.0005123353330418468,9.41237340157386e-06,-1.6585759112786036e-06
0.00025829728110693395,3.6090721096115885e-06,-9.413303814653773e-06
7.208192255347967e-05,4.166719008935615e-06,8.64377625475754e-07
4.847846503253095e-05,2.98831128020538e-06,1.2960048479726538e-05
7.509264833061025e-05,-2.6059337869810406e-06,2.1430023480206728e-05
5.010396125726402e-05,-6.029523319739383e-06,3.4596323530422524e-05
-9.387345926370472e-06,-4.061007530253846e-06,5.279465040075593e-05
-4.805401113117114e-05,-4.180422230604108e-09,6.822199793532491e-05
-6.0155980463605374e-05,2.0123604826949304e-06,7.864710642024875e-05
-8.616749983048066e-05,2.8259285045351135e-06,8.496202644892037e-05
-0.00013832192053087056,2.3343905013462063e-06,8.644122863188386e-05
-0.00018212368013337255,2.2505853394250153e-06,8.667492511449382e-05
-0.00017685479542706162,3.890710104315076e-06,8.173457899829373e-05
-0.00012193316069897264,7.691442988289054e-06,6.624576053582132e-05
-6.412449147319421e-05,1.2662530025409069e-05,5.421083187684417e-05
-4.419634569785558e-05,2.0050556486239657e-05,5.9879566833842546e-05
-1.665948366280645e-05,2.1768390070064925e-05,6.712417962262407e-05
4.8239824536722153e-05,7.4252857302781194e-06,5.247076478553936e-05
0.00016645147115923464,-6.544653388118604e-06,2.9475271730916575e-05
0.0002904675202444196,-1.2404550034261774e-05,1.0679435945348814e-05
0.0003263746330048889,-1.8955261111841537e-05,-1.2499508557084482e-05
0.00025225075660273433,-2.236923683085479e-05,-3.6744808312505484e-05
7.702432776568457e-05,-1.4630285477323923e-05,-4.2321586079197004e-05
-0.00015095301205292344,2.722102180996444e-06,-2.5807314159465022e-05
-0.00026600906858220696,1.912873085530009e-05,-1.7634819187151152e-06
-0.00016655950457789004,3.501613900880329e-05,1.7886541172629222e-05
2.9761418772977777e-05,4.8578967835055664e-05,2.0127232346567325e-05
0.00021065215696580708,4.7293840907514095e-05,-3.280550799900084e-06
0.00042339781066402793,2.8037104129907675e-05,-4.285601244191639e-05
0.0006044410401955247,2.8618790111067938e-06,-7.442959758918732e-05
0.0005281263729557395,-2.171257438021712e-05,-9.053816029336303e-05
0.00025074576842598617,-4.228727630106732e-05,-9.547835361445323e-05
-5.040995461058628e-07,-5.091467755846679e-05,-8.622250607004389e-05
-0.00014729062968399376,-4.8793936002766714e-05,-6.64568433421664e-05
-0.00018603168427944183,-4.512130908551626e-05,-4.947154229739681e-05
-0.00012487955973483622,-4.057995101902634e-05,-3.5068005672656e-05
-2.9289933081599884e-05,-3.034423389181029e-05,-1.1889529559994116e-05
4.6376680984394625e-05,-1.7810891222325154e-05,1.9358256395207718e-05
5.536513344850391e-05,-6.447678515542066e-06,4.9846905312733725e-05
-2.7597498046816327e-05,-3.5602464976136616e-08,6.908870273036882e-05
-0.0001264005695702508,-1.2814329011234804e-06,7.67001838539727e-05
-0.000147862228914164,-7.481208740500733e-06,7.505422399844974e-05
-0.00013450671394821256,-1.030246312438976e-05,7.570123125333339e-05
-0.00017089088214561343,-7.383186130027752e-06,8.50381693453528e-05
-0.0002059649705188349,-5.611914730252465e-06,8.610097575001419e-05
-0.00021131584071554244,-1.0214766916760709e-05,6.387683970388025e-05
-0.00022746407194063067,-1.58631428348599e-05,3.941054455935955e-05
-0.00022878812160342932,-1.2985472494619898e-05,4.1652288928162307e-05
-0.00012763388804160058,-2.4097487312246813e-06,5.605620754067786e-05
5.024679012421984e-06,9.308956578024663e-06,6.72314636176452e-05
-2.4351500087504974e-06,2.0883468096144497e-05,7.165720307966694e-05
-7.179853128036484e-05,2.8740243578795344e-05,7.105117401806638e-05
-4.425333463586867e-05,2.26528754865285e-05,6.195739115355536e-05
7.285892206709832e-05,5.221654191700509e-06,3.899629882653244e-05
0.0002124197781085968,-8.665051609568764e-06,6.481492391685606e-07
0.00027702684747055173,-1.2466376574593596e-05,-3.781987834372558e-05
0.000179938375367783,-9.453912753087934e-06,-5.4852058383403346e-05
5.77380660615745e-06,-4.4007297219650354e-06,-5.329389387043193e-05
-7.746893243165687e-05,1.3305649417816312e-06,-4.928801718051545e-05
-0.00010471804853295907,5.518227226275485e-06,-5.5507505749119446e-05
-0.00021093260147608817,5.177731509320438e-06,-6.607935210922733e-05
-0.00034415978007018566,-3.825140026947338e-08,-6.838075933046639e-05
-0.0003375360101927072,-4.6453660615952685e-06,-5.752747892984189e-05
-0.00015886654728092253,-4.353893928055186e-06,-4.20577525801491e-05
0.00011949762847507372,2.0817337542666792e-07,-2.342172956559807e-05
0.0004006525850854814,4.584526777762221e-06,-3.79803782379895e-06
0.0005881290999241173,8.150353096425533e-06,7.373508196906187e-06
0.0006477973074652255,8.881067515176255e-06,4.712760983238695e-06
0.00056111701996997,3.815511263383087e-06,-5.137017978995573e-06
0.00036049794289283454,3.4802294521796284e-06,-4.283756425138563e-06
0.00013474807201419026,6.6788861659006216e-06,1.7080246834666468e-05
-9.438789129490033e-05,8.47000592330005e-06,4.9076526920543984e-05
-0.0003514564305078238,7.837451448722277e-06,6.470242806244642e-05
-0.0005306748789735138,4.664701009460259e-06,6.865835166536272e-05
-0.0004706691252067685,2.0253482944099233e-06,7.662842835998163e-05
-0.00025252270279452205,6.167799142531294e-07,8.243712363764644e-05
-3.1723215215606615e-05,-1.066681193151453e-06,8.94628101377748e-05
9.722660615807399e-05,-2.9808577437506756e-06,8.972251816885546e-05
0.00010038835171144456,2.892927341235918e-06,8.34030142868869e-05
3.45759981428273e-05,1.4277128684625495e-05,7.854012801544741e-05
-8.434340998064727e-05,2.5134837414952926e-05,8.195574628189206e-05
-0.00021667475812137127,3.4042972401948646e-05,9.333104389952496e-05
-0.0003042080206796527,4.2096096876775846e-05,0.00010299999848939478
-0.0003064579505007714,4.8602745664538816e-05,0.00010280036804033443
-0.000260552711552009,4.953437019139528e-05,9.62344856816344e-05
-0.0002171500527765602,3.828131957561709e-05,8.402395906159654e-05
-0.00020845202379859984,1.2312824765103869e-05,4.7545698180329055e-05
-0.00019177266221959144,-1.868306571850553e-05,-1.2417525795171969e-05
-3.858950367430225e-05,-4.1319402953376994e-05,-6.27688059466891e-05
0.0002637419675011188,-4.984182305634022e-05,-7.663501310162246e-05
0.0005198109429329634,-5.102852446725592e-05,-7.78882167651318e-05
0.000554984319023788,-5.398324356065132e-05,-0.00010580223170109093
0.0003458866849541664,-5.7211171224480495e-05,-0.00014781556092202663
-5.154466271051206e-05,-5.3172276238910854e-05,-0.0001613799831829965
-0.0004041602951474488,-4.061231084051542e-05,-0.00013695000961888582
-0.00047503324458375573,-2.4848171960911714e-05,-9.78805182967335e-05
-0.0002888190792873502,-1.3459660294756759e-05,-6.686050619464368e-05
1.7353298972011544e-05,-8.105616871034727e-06,-3.745921640074812e-05
0.0003763118293136358,-9.155849511444103e-06,-1.5542156688752584e-05
0.0005372368614189327,-8.784226338320877e-06,-1.295833135372959e-05
0.0003879718715324998,-9.134557785728248e-07,-1.683869049884379e-05
0.00015443787560798228,7.214620382001158e-06,-1.2210424756631255e-05
2.6286350475857034e-05,1.0996642231475562e-05,2.9320443672986585e-07
2.5892584744724445e-05,1.0481171557330526e-05,1.9915632947231643e-05
4.050377901876345e-05,5.2414779929677024e-06,4.3100200855406e-05
4.060885839862749e-05,-3.8114038147796236e-08,6.345271685859188e-05
5.172493911231868e-05,6.617749477300094e-07,7.688618643442169e-05
6.371417111949995e-05,6.028365532984026e-06,9.005331958178431e-05
4.1238279663957655e-05,8.052844350459054e-06,0.00010576070053502917
-1.8883501979871653e-06,4.950513357471209e-06,0.00012015525135211647
-5.20446446898859e-05,2.3300569864659337e-06,0.0001312250387854874
-9.423489245818928e-05,3.69075110029371e-06,0.00013577169738709927
-9.632676665205508e-05,4.814295152755221e-06,0.0001299456926062703
-6.972961273277178e-05,4.9336731535731815e-06,0.00011232207907596603
-6.3774423324503e-05,8.658254955662414e-06,9.064846381079406e-05
-0.00011921429540961981,1.4594003914680798e-05,6.399178528226912e-05
-0.0002183710312237963,2.2036987502360716e-05,3.9205991924973205e-05
-0.0002970127097796649,3.5830937122227624e-05,4.244593947078101e-05
-0.00026629053172655404,5.4073472711024806e-05,8.348515257239342e-05
-9.25942076719366e-05,6.239090726012364e-05,0.00011286409426247701
0.0001519898505648598,5.0341350288363174e-05,8.184413309209049e-05
0.0003416191611904651,2.065029548248276e-05,2.478265514582745e-06
0.0004413785063661635,-2.2626294594374485e-05,-8.45953545649536e-05
0.000465861929114908,-6.523640331579372e-05,-0.00015452908701263368
0.00032307294895872474,-8.187643106793985e-05,-0.00018364300194662064
-9.525562927592546e-05,-7.131244638003409e-05,-0.00016840072930790484
-0.000305820198263973,-4.7765730414539576e-05,-0.00013545594993047416
-8.538099064026028e-05,-2.7290268917568028e-05,-0.00010324156028218567
0.00014211470261216164,-1.6509862689417787e-05,-8.032951882341877e-05
0.00012100318417651579,-1.0290965292369947e-05,-6.504601333290339e-05
-9.629535634303465e-05,-3.6748565435118508e-06,-4.6614390157628804e-05
-0.00021871326316613704,-3.1631061574444175e-06,-2.8176335035823286e-05
-0.00019282636640127748,-7.308615749934688e-06,-1.939727007993497e-05
-0.00012141162005718797,-6.8936674324504565e-06,-1.3997629139339551e-05
-0.00012160899495938793,5.245377678875229e-07,-9.338230029243277e-07
-0.00010104584362125024,8.753436304687057e-06,1.6080812201835215e-05
5.026203143643215e-05,1.2510330634540878e-05,3.251565794926137e-05
0.00024455893435515463,1.3882902749173809e-05,5.042948032496497e-05
0.00031341216526925564,1.365849038847955e-05,6.915674021001905e-05
0.00020095014770049602,1.2472831258492079e-05,8.380344661418349e-05
-1.981783498195e-05,9.871143447526265e-06,9.541059262119234e-05
-0.00022306328173726797,9.000961654237472e-06,0.00010559421207290143
-0.0002954461087938398,8.377121957892086e-06,0.00011136508692288771
-0.000252334721153602,7.025772447377676e-06,0.00011145486496388912
-0.0001506753033027053,3.0862386211083503e-06,0.0001037096226355061
-5.2376602980075404e-05,-3.991074208897771e-06,9.151236736215651e-05
2.8131320505053736e-05,-9.102208423428237e-06,8.400914521189407e-05
7.172819459810853e-05,-7.193088094936684e-06,8.229266677517444e-05
9.131431579589844e-05,7.728608011348115e-07,7.7407545177266e-05
8.195465488824993e-05,8.709199391887523e-06,6.928232323843986e-05
6.623895751545206e-05,9.077485628949944e-06,6.314425263553858e-05
6.289379962254316e-05,4.679423000197858e-06,5.809166395920329e-05
1.4637109416071326e-05,2.3791012608853634e-06,5.222786421654746e-05
-0.00011700426694005728,-1.709197476884583e-07,4.16315597249195e-05
-0.00018354092026129365,-6.294213108049007e-06,9.91696651908569e-06
-0.0001565100537845865,-9.613117981643882e-06,-2.9586128221126273e-05
-0.00016661794506944716,-4.1937546484405175e-06,-5.0325576012255624e-05
-0.0001669944467721507,2.8020251647831174e-06,-5.537706601899117e-05
-5.5274438636843115e-05,6.6974307628697716e-06,-5.7480978284729645e-05
6.697347271256149e-05,8.479145435558166e-06,-6.112270057201385e-05
0.00013329136709216982,8.891526704246644e-06,-6.497936556115746e-05
0.00017710603424347937,8.719178367755376e-06,-6.288105942076072e-05
0.00016653795319143683,8.889553100743797e-06,-5.1001487008761615e-05
3.458840728853829e-05,1.0642634151736274e-05,-3.219149948563427e-05
-0.00020900616073049605,1.3024431609665044e-05,-1.3722811672778334e-05
-0.0003770282201003283,1.7116961316787638e-05,-2.399608774794615e-06
-0.00031871427199803293,2.183163451263681e-05,1.1600013749557547e-06
-0.00011896275827893987,2.0097935703233816e-05,-8.544013780920068e-07
5.536678509088233e-05,8.073102435446344e-06,-1.073381099558901e-05
0.00022969362908042967,-7.997477041499224e-06,-3.0312114176922478e-05
0.0004436525050550699,-1.8450831703376025e-05,-4.5126016630092636e-05
0.0005636686692014337,-2.020327519858256e-05,-3.3405976864742115e-05
0.0004334063269197941,-1.8507274944568053e-05,8.425523105870525e-07
8.521478594047949e-05,-2.5113711672020145e-05,2.7476778996060602e-05
-0.0003209864953532815,-3.9547387132188305e-05,3.075196946156211e-05
-0.0005900149117223918,-4.597372026182711e-05,2.5870709578157403e-05
-0.0005081156850792468,-3.806466702371836e-05,3.482675674604252e-05
-3.634704989963211e-05,-2.757485708571039e-05,5.146409966982901e-05
0.0004122096870560199,-2.4366920115426183e-05,5.626066558761522e-05
0.0003945963690057397,-2.1465437384904362e-05,5.441488610813394e-05
8.939097460824996e-05,-9.755679457157385e-06,6.132759881438687e-05
-3.0229617550503463e-05,4.884439022134757e-06,7.18825904186815e-05
6.541877519339323e-05,1.288108978769742e-05,7.102207018760964e-05
0.00013079452037345618,1.1087244274676777e-05,5.5194868764374405e-05
0.00010500269127078354,5.302208592183888e-06,3.4277767554158345e-05
5.433370461105369e-05,-1.4108444474913995e-06,9.831873285293113e-06
3.18295496981591e-05,-8.682088264322374e-06,-1.2686017726082355e-05
5.5921473176567815e-06,-1.3633378330268897e-05,-2.8099495466449298e-05
-3.473623291938566e-05,-1.2111542673665099e-05,-3.179553459631279e-05
-5.226700159255415e-05,-5.700289420929039e-06,-2.411148489045445e-05
-2.134787428076379e-05,-1.6555087256620027e-07,-1.8268015992362052e-05
3.334281063871458e-05,2.924253521996434e-06,-1.9667264496092685e-05
7.588045991724357e-05,2.837252623066888e-06,-2.324611705262214e-05
9.259488433599472e-05,1.7223480881511932e-06,-2.8453036065911874e-05
9.019263234222308e-05,2.6585652790345193e-07,-4.0271097532240674e-05
0.00010624240530887619,-6.471342999248009e-07,-5.153748861630447e-05
0.000152399210492149,-2.7128456281388935e-07,-4.95416643389035e-05
0.0001866357633844018,4.719091066363035e-06,-2.881572800106369e-05
0.00016379299631807953,1.6182451872737147e-05,5.332599812390981e-06
2.3429014618159272e-05,3.3822765544755384e-05,4.541772432276048e-05
-0.0003421080473344773,5.4147327318787575e-05,8.61883454490453e-05
-0.0007448925753124058,7.111890590749681e-05,0.00012069030344719067
-0.0006800447590649128,7.640123658347875e-05,0.00013540832151193172
-0.0001322016178164631,6.093182309996337e-05,0.00011465351417427883
0.0004261636349838227,2.194995977333747e-05,6.289624434430152e-05
0.0007039603078737855,-2.0388426491990685e-05,9.956646863429341e-06
0.0006911538075655699,-5.219022204983048e-05,-2.939528349088505e-05
0.00043682369869202375,-7.096174522303045e-05,-4.259619890945032e-05
8.290005098388065e-06,-7.064635428832844e-05,-3.847522384603508e-05
-0.00028851747629232705,-6.0155016399221495e-05,-3.0470928322756663e-05
-0.00025683612329885364,-4.451209679245949e-05,-3.818298864644021e-06
-5.96503377892077e-05,-2.9569513571914285e-05,2.672891059773974e-05
6.399394624168053e-05,-1.9571691154851578e-05,3.8570382457692176e-05
4.310520671424456e-05,-1.7199501598952338e-05,3.294315320090391e-05
-4.532699313131161e-05,-1.6154375771293417e-05,2.620559826027602e-05
-0.00010933481098618358,-1.301125575992046e-05,2.570070864749141e-05
-0.00010056633618660271,-1.1413624633860309e-05,2.437119655951392e-05
-3.782268686336465e-05,-1.0200024917139672e-05,2.2728867406840436e-05
1.3505739843822084e-05,-5.563420472753933e-06,2.5800072762649506e-05
1.7073791241273284e-05,1.356835014121316e-06,2.656025390024297e-05
-3.5582055716076866e-05,6.035240858182078e-06,1.827565392886754e-05
-0.0001619134854990989,8.424998668488115e-06,3.0397786758840084e-06
-0.0003079905000049621,9.86983832262922e-06,-1.0559735528659075e-05
-0.000362152059096843,1.1342203833919484e-05,-1.4899903362675104e-05
-0.0002646483189892024,1.2620738743862603e-05,-1.4623616152675822e-05
-4.427508247317746e-05,1.5683286619605497e-05,-1.7402291632606648e-05
0.00021152109547983855,1.7696813301881775e-05,-2.2539978090208024e-05
0.00037844351027160883,1.7880593077279627e-05,-2.7180121833225712e-05
0.0003817332035396248,1.7817297703004442e-05,-2.5195424314006232e-05
0.00021817705419380218,1.8429887859383598e-05,-1.4930663382983766e-05
-4.9679107178235427e-05,1.7865739209810272e-05,-8.585718205722515e-06
-0.0002756025060079992,1.5200022062344942e-05,-8.78987066244008e-06
-0.0002912128693424165,1.1596390322665684e-05,-8.04925093689235e-06
-0.00015321011596824974,8.672106559970416e-06,1.1695216244334006e-06
-4.710570283350535e-05,4.563140464597382e-06,1.1371858818165492e-05
4.818186880584108e-06,-2.570571950855083e-07,1.579375566507224e-05
1.7209476936841384e-05,-1.2699696299023344e-06,2.2041054762667045e-05
-2.4427408789051697e-05,1.410550567015889e-06,3.594697773223743e-05
-7.498864579247311e-05,2.558419737397344e-06,5.6830071116564795e-05
-0.00014228293730411679,2.885440153477248e-06,7.524402462877333e-05
-0.0002013962803175673,3.070485490752617e-06,9.124704956775531e-05
-0.00019088658154942095,4.790438197233016e-06,0.00010527228005230427
-0.00013394493726082146,7.753926183795556e-06,0.00010869520338019356
-7.016406743787229e-05,6.491848125733668e-06,0.00010130450391443446
-3.555111834430136e-05,2.6247748792229686e-06,8.580000576330349e-05
-7.57408924982883e-05,4.774328772327863e-07,6.905272311996669e-05
-0.0001386301446473226,1.2616566209544544e-06,5.924923607381061e-05
-7.787532376823947e-05,1.7522402231406886e-06,5.5692366004223004e-05
0.00014904301497153938,1.8376872503722552e-06,5.054500070400536e-05
0.0003904404293280095,3.142245759590878e-06,3.6643734347308055e-05
0.00044979789527133107,3.0259720915637445e-06,1.601248368388042e-05
0.0003236279299017042,-4.3856053366653214e-07,-5.276969659462338e-06
0.00017678157018963248,-5.730620159738464e-06,-1.984386472031474e-05
0.00011806726251961663,-8.485311809636187e-06,-2.0246070562279783e-05
9.221304208040237e-05,-6.502193173218984e-06,-1.3273865079099778e-05
6.915277481311932e-05,-6.709072295052465e-06,-1.897861875477247e-05
7.086506957421079e-05,-1.1134331543871667e-05,-4.160192111157812e-05
5.515247903531417e-05,-1.426981089025503e-05,-6.126423977548257e-05
2.5155160983558744e-05,-1.3258643775770906e-05,-6.179483898449689e-05
3.204996755812317e-05,-1.263814283447573e-05,-5.551083086174913e-05
1.4532108252751641e-05,-1.4866672245261725e-05,-5.700720430468209e-05
-3.614530578488484e-05,-1.5310191884054802e-05,-6.078488877392374e-05
-8.408764551859349e-05,-1.254271683137631e-05,-5.564332604990341e-05
-0.0001859932963270694,-7.06666469341144e-06,-3.815654054051265e-05
-0.0002829030272550881,-1.1018692021025345e-06,-1.6465191947645508e-05
-0.00023926141147967428,8.042678132369474e-07,1.2130441291446914e-06
-6.424020102713257e-05,-7.981369094522961e-07,1.1403467397030909e-05
9.565589425619692e-05,-2.677244310689275e-06,1.3061418940196745e-05
0.00013803932233713567,-2.773660298771574e-06,1.0814510460477322e-05
9.354500798508525e-05,-4.424217877385672e-06,7.2524517236161046e-06
3.958182787755504e-05,-8.69527502800338e-06,6.276264684856869e-06
2.330917413928546e-05,-1.1117593203380238e-05,2.1898875274928287e-05
2.8033835405949503e-05,-8.820370567264035e-06,5.171947123017162e-05
4.0308459574589506e-05,-4.2878036765614524e-06,7.778902363497764e-05
5.2151950512779877e-05,-1.994951389860944e-06,8.960662671597674e-05
1.6456489902338944e-05,-3.827984073723201e-06,9.227888949681073e-05
-8.000747038749978e-05,-7.380118404398672e-06,9.551540279062465e-05
-0.00015721078671049327,-9.860822501650546e-06,9.843026055023074e-05
-0.00015386700397357345,-1.125940980273299e-05,9.256992052542046e-05
-0.00011806769180111587,-9.673453860159498e-06,7.858796016080305e-05
-0.00011574751988518983,-1.128145072470943e-06,6.69183355057612e-05
-0.00015174680447671562,1.2187631909910124e-05,6.637178739765659e-05
-0.00017888603906612843,2.2739808628102764e-05,7.572167669422925e-05
-0.0001297981943935156,2.4727598429308273e-05,8.308339602081105e-05
6.746465260221157e-06,1.5060819350765087e-05,7.896167517174035e-05
0.00011458295921329409,1.6216206404351396e-06,5.891487671760842e-05
5.478141247294843e-05,-1.075030377251096e-05,2.616386700537987e-05
-9.830638737184927e-05,-1.805356441764161e-05,-1.097179210773902e-05
-7.68737809266895e-05,-1.487827375967754e-05,-3.632795414887369e-05
0.0001439950428903103,-1.1722139788616914e-05,-4.832706326851621e-05
0.0003256250638514757,-1.3985638361191377e-05,-5.8502151659922674e-05
0.0002021634136326611,-9.875546311377548e-06,-6.115815631346777e-05
-0.00014113984070718288,2.6891771653936303e-07,-5.382686504162848e-05
-0.00022148121206555516,3.3232795431104023e-06,-4.831509795621969e-05
0.00011208879004698247,-1.2744822015520185e-06,-4.61128365714103e-05
0.00042934148223139346,-7.12170867700479e-06,-4.15280410379637e-05
0.0003762867709156126,-1.3189998753659893e-05,-3.6272042052587494e-05
0.00014573907537851483,-1.8939184883493e-05,-3.2918302167672664e-05
3.222006489522755e-05,-2.018250415858347e-05,-3.103290146100335e-05
7.437030581058934e-05,-1.4091165212448686e-05,-2.349608257645741e-05
0.00013067775580566376,-6.4096689129655715e-06,-6.54610312267323e-06
7.35396533855237e-05,-4.973297109245323e-06,6.736049726896454e-06
-0.00010026859672507271,-9.66811512626009e-06,8.375544894079212e-06
-0.00021730686421506107,-1.1637359421001747e-05,1.6160234736162238e-05
-9.971635154215619e-05,-4.780906692758435e-06,4.99600064358674e-05
0.00019902161147911102,7.606520739500411e-06,9.812258940655738e-05
0.000447418715339154,1.7308551832684316e-05,0.0001248143526026979
0.00045329827116802335,2.2195183191797696e-05,0.00011322092905174941
0.00020746838708873838,2.0450919691938907e-05,8.049330790527165e-05
-0.000127165942103602,1.0048631338577252e-05,5.57691600988619e-05
-0.0003131525299977511,3.459124854998663e-06,5.7492012274451554e-05
-0.00026436970802024007,5.8819191508519e-06,7.729316712357104e-05
-0.00012422331201378256,4.507928679231554e-06,7.845981599530205e-05
-6.277825013967231e-05,-9.17399211175507e-06,3.653174280771054e-05
-0.00010577139619272202,-2.1548692529904656e-05,-1.4888865734974388e-05
-0.00015345291467383504,-2.427292383799795e-05,-2.939448313554749e-05
-8.56555052450858e-05,-2.1672220100299455e-05,-1.4199980796547607e-05
1.5042734048620332e-05,-1.3219806533015799e-05,3.7143770441616653e-06
3.01586387649877e-05,-5.036047241446795e-06,7.594651833642274e-06
-2.5731469577294774e-05,-5.4650904530717526e-06,-4.966707365383627e-06
-7.321815064642578e-05,-9.600662451703101e-06,-1.836456431192346e-05
-6.989227404119447e-05,-9.015526302391663e-06,-3.076902430620976e-05
-1.4899961570336018e-05,-5.942139523540391e-06,-4.175280992058106e-05
9.517368016531691e-05,-3.0772193895245437e-06,-4.824678762815893e-05
0.00019539639470167458,-1.2975872323295334e-06,-5.265498111839406e-05
0.00021477305563166738,1.0841025641639135e-06,-5.31703517481219e-05
0.000144780584378168,5.863911610504147e-06,-4.8996229452313855e-05
8.206798156606965e-06,1.242347752850037e-05,-4.458566036191769e-05
-0.00017230032244697213,1.713596429908648e-05,-4.334610275691375e-05
-0.00031175982439890504,2.061784834950231e-05,-3.969264798797667e-05
-0.0002810168662108481,2.475389737810474e-05,-2.7518351998878643e-05
-9.168954420601949e-05,2.8891190595459193e-05,-9.042640158440918e-06
7.748638017801568e-05,3.0468729164567776e-05,7.632165761606302e-06
0.00010576824570307508,2.5789135179365985e-05,1.7320795450359583e-05
2.168287210224662e-06,1.6309617421939038e-05,1.8465001630829647e-05
-0.00018451518553774804,3.4591646453918656e-06,1.3391538232099265e-05
-0.00035276790731586516,-1.0708024092309643e-05,8.106270797725301e-06
-0.0003544481878634542,-2.2842565158498473e-05,1.3975904948893003e-06
-0.00017635489348322153,-2.9338312742765993e-05,-3.527277613102342e-06
2.7051007691625273e-06,-2.7110834707855247e-05,5.629778570437338e-06
1.385683299304219e-05,-1.7901049432111904e-05,2.8552043659146875e-05
-9.220006177201867e-05,-4.973335308022797e-06,5.611534652416594e-05
-0.00012707433779723942,5.414624865807127e-06,7.358199218288064e-05
-2.326513822481502e-05,5.958187557553174e-06,8.170377259375528e-05
0.00012846161553170532,-1.88847570825601e-06,7.749268115730956e-05
0.00020792063151020557,-1.1367518709448632e-05,6.456014671130106e-05
0.0001632868079468608,-1.2299463378440123e-05,5.959887130302377e-05
5.672154657077044e-05,-9.509521987638436e-06,6.333721103146672e-05
-1.0800475138239563e-05,-8.10254550742684e-06,6.610633863601834e-05
-1.7829113858169876e-05,-6.435019713535439e-06,6.117759039625525e-05
-1.9152039385517128e-05,-2.0535305793600855e-06,5.705706280423328e-05
-4.892945435130969e-05,3.049841325264424e-06,5.3228952310746536e-05
-5.8713576436275616e-05,4.783510576089611e-06,4.7140641981968656e-05
-4.461508524400415e-06,6.554524588864297e-06,3.86705287382938e-05
8.308745600515977e-05,1.1417353562137578e-05,2.9869370337110013e-05
0.0001500919897807762,1.634289583307691e-05,1.9312608856125735e-05
0.00015653931768611073,1.5174841792031657e-05,1.1977855137956794e-05
0.00010535727778915316,1.1073069799749646e-05,5.946382771071512e-06
4.111380621907301e-05,7.116960659914184e-06,-1.1473952326923609e-05
-6.952996045583859e-06,2.308834154973738e-06,-3.939242014894262e-05
-4.3594827729975805e-05,-9.682071322458796e-07,-5.90283889323473e-05
-7.556972559541464e-05,4.019923380838009e-06,-5.3540414228336886e-05
-0.00014621035370510072,1.4354995073517784e-05,-3.070726597798057e-05
-0.00025833933614194393,2.0392279111547396e-05,-9.63511956797447e-06
-0.0002562524168752134,2.1593266865238547e-05,6.611478966078721e-06
-7.166032446548343e-05,2.025081448664423e-05,2.6928111765300855e-05
0.00012897826672997326,9.661536751082167e-06,2.2976268155616708e-05
0.0002261359040858224,-8.294294275401626e-06,-2.718307041504886e-05
0.00024175006547011435,-2.186948222515639e-05,-7.563354301964864e-05
0.00020660909649450332,-2.275146107422188e-05,-6.866613694000989e-05
0.00021286943228915334,-1.129189240600681e-05,-2.529618541302625e-05
0.00030473730294033885,5.3999332294552e-07,1.7647520508035086e-05
0.0003442247398197651,4.591653578245314e-06,4.0133960283128545e-05
0.00025387248024344444,5.479779702000087e-06,3.927861325792037e-05
0.00010544062388362363,2.877803808587487e-06,3.974630817538127e-05
1.5577344356643152e-06,-4.31675061918213e-06,4.640145562007092e-05
-5.4665651987306774e-05,-1.2461052392609417e-05,5.159343345439993e-05
-0.00013064414088148624,-1.6408652300015092e-05,5.8241399528924376e-05
-0.000210894868359901,-1.4999336599430535e-05,6.871531513752416e-05
-0.0002236487780464813,-1.3684806617675349e-05,6.946794019313529e-05
-0.00016748535563237965,-1.3480588677339256e-05,5.684132702299394e-05
-6.17525729467161e-05,-1.4024129086465109e-05,4.552855534711853e-05
9.54053393797949e-05,-1.2190565939818043e-05,4.228106627124362e-05
0.00020564398437272757,-7.740975888737012e-06,3.912512329407036e-05
0.00014255510177463293,-1.562337843097339e-06,3.117940286756493e-05
-5.958694237051532e-05,3.2908776574913645e-06,2.4158107407856733e-05
-0.00023250993399415165,5.708756361855194e-06,2.071514791168738e-05
-0.0002749118139036,6.665507953584893e-06,1.5256689039233606e-05
-0.00020393829618114978,4.095554686500691e-06,-3.002103994731442e-06
-0.00010527622362133116,-1.2837381291319616e-06,-2.466096520947758e-05
-3.397700493223965e-05,-6.150658009573817e-06,-3.520818427205086e-05
3.380153066245839e-05,-6.537252829730278e-06,-3.351519990246743e-05
9.147844684775919e-05,-1.2645357401197543e-06,-3.167001705151051e-05
7.689771155128255e-05,3.7474430882866727e-06,-3.467514761723578e-05
-9.86680606729351e-06,3.6342757994134445e-06,-3.0754905310459435e-05
-7.974101026775315e-05,3.9937567635206506e-06,-2.022592343564611e-05
-4.032607830595225e-05,9.642449185776059e-06,-1.3299350030138157e-05
6.412298534996808e-05,1.0846438271983061e-05,-1.2539524504973087e-05
0.00010890326666412875,-1.8424276504447334e-07,-2.851007411663886e-05
5.778068589279428e-05,-1.3967368431622162e-05,-5.3079609642736614e-05
-8.067574526648968e-06,-1.3421809853753075e-05,-5.49330870853737e-05
-1.306207286688732e-05,-2.428195784887066e-06,-3.0358241929206997e-05
1.1663631994451862e-05,3.519913207128411e-06,3.605837548548152e-07
3.3399148378521204e-05,1.723093077998783e-06,1.9883378627127968e-05
1.8052598534268327e-05,-1.5584038237648201e-06,3.527536682668142e-05
-4.2749543354148045e-05,1.3926020869803324e-07,5.666134529747069e-05
-9.755091741681099e-05,2.3118032004276756e-06,7.396915316348895e-05
-0.00010906562238233164,1.958751226993627e-06,8.211015665438026e-05
-5.794779644929804e-05,1.0696001027099555e-06,8.852624159771949e-05
5.406214768299833e-05,1.9811895981547423e-06,9.320172102889046e-05
0.00016047961253207177,2.9649709176737815e-06,9.242769738193601e-05
0.00016964257520157844,7.035925136733567e-06,9.362777200294659e-05
8.627792703919113e-05,1.4504156752082054e-05,0.00010357608698541299
-3.5385914088692516e-05,1.753644392010756e-05,0.00011083369463449344
-0.0001736363337840885,1.0897950232902076e-05,9.974370914278552e-05
-0.00027224322548136115,-6.401069754247146e-07,7.340875163208693e-05
-0.00024273255257867277,-9.187706382363103e-06,4.765882113133557e-05
-6.82161480654031e-05,-1.2525196325441357e-05,3.1035680876811966e-05
0.00017995413509197533,-1.138711377279833e-05,1.4845680198050104e-05
0.00033710661227814853,-7.900080163381062e-06,-6.5389567680540495e-06
0.0003053062246181071,-6.262756869546138e-06,-2.777072586468421e-05
0.00020366354146972299,-6.483061952167191e-06,-4.384201020002365e-05
8.517651440342888e-05,-5.1354450079088565e-06,-5.481630432768725e-05
-0.0001460876956116408,-4.402131708047818e-06,-5.676873115589842e-05
-0.00024200615007430315,-3.022388000317733e-06,-5.041119584348053e-05
-4.3786767491837963e-05,-1.2518888752310886e-06,-4.824138159165159e-05
0.00013942760415375233,4.886767897005484e-07,-4.9717222282197326e-05
0.00013637023221235722,-9.604851811673143e-07,-4.9363843572791666e-05
-1.5446337783942e-05,-7.815613116690656e-07,-3.5467161069391295e-05
-0.00022214687487576157,6.28307770966785e-06,-1.3285161003295798e-05
-0.0004026907845400274,9.99866551865125e-06,-2.100363190038479e-06
-0.0004051517753396183,2.1159526113478933e-06,-9.592084097675979e-06
-0.00020395530737005174,-1.1500863365654368e-05,-2.110131572408136e-05
3.9904520235722885e-05,-1.794384115783032e-05,-1.3214573300501797e-05
0.0001408133830409497,-1.707661613181699e-05,3.127768650301732e-06
6.755614595022053e-05,-1.3889186448068358e-05,5.703576789528597e-06
-4.697819531429559e-05,-1.0506892976991367e-05,1.7881558278531884e-07
-9.005392348626629e-05,-4.219823949824786e-06,9.890242836263496e-06
1.2505494851211552e-05,4.086211447429378e-06,3.5384826333029196e-05
0.0002500025148037821,8.397530109505169e-06,5.21834590472281e-05
0.0004326358321122825,7.878062206145842e-06,5.30954021087382e-05
0.0003527452936396003,1.019077990349615e-05,5.976110332994722e-05
0.00010853423009393737,1.6138661521836184e-05,7.811563409632072e-05
-7.975722837727517e-05,1.2495569535531104e-05,8.621280721854419e-05
-0.00013168490841053426,-7.90947706263978e-06,6.950001261429861e-05
-0.00011447497672634199,-3.003897290909663e-05,4.568035728880204e-05
-6.232869782252237e-05,-3.554383874870837e-05,3.8465019315481186e-05
5.916774534853175e-05,-3.0304310712381266e-05,4.0880360757000744e-05
0.00019901050836779177,-2.3896738639450632e-05,4.352116957306862e-05
0.00019560923101380467,-1.8565167920314707e-05,4.378253288450651e-05
7.916077447589487e-05,-1.2503764082794078e-05,2.9085180358379148e-05
2.987215520988684e-05,-3.8965399653534405e-06,1.5646677638869733e-05
3.0789462471148e-05,5.160210548638133e-06,2.2034248104318976e-05
-3.244284380343743e-05,1.2664992027566768e-05,3.6687779356725514e-05
-0.00012163651263108477,1.5263649402186275e-05,3.6989895306760445e-05
-0.00012721202801913023,1.1733353858289775e-05,1.1924449609068688e-05
-1.5538867955910973e-05,8.392035852011759e-06,-1.2619070730579551e-05
0.00011286808148724958,6.1073756114637945e-06,-2.1647449102601968e-05
0.00016375305131077766,5.3273756748239975e-06,-3.0156721550156362e-05
0.0001557022478664294,7.769392141199205e-06,-3.701231980812736e-05
0.000138367191539146,1.2679499377554748e-05,-3.297286821180023e-05
0.00012054650142090395,1.2458569472073577e-05,-3.0956263799453154e-05
7.520842336816713e-05,3.928853857360082e-06,-3.982097769039683e-05
1.637816967559047e-05,-3.458216724538943e-06,-4.578625885187648e-05
-1.7250069504370913e-05,-4.29973988502752e-06,-3.592816210584715e-05
-3.3512869777041487e-06,-1.654067204981402e-06,-1.872520260803867e-05
3.6659042962128296e-05,-2.1086195829411736e-06,-7.3448268267384265e-06
5.598329516942613e-05,-7.214286597445607e-06,-3.7341189909056993e-06
1.1780712156905793e-05,-1.1234479643462691e-05,-1.620685679881717e-06
-6.504649354610592e-05,-8.142077604134101e-06,6.123525508883176e-06
-0.00010524108074605465,-3.4230063192808302e-06,1.7191625374834985e-05
-9.777237573871389e-05,-9.111813028539473e-07,3.203332380508073e-05
-4.195360452285968e-05,1.940017455126508e-06,5.408023207564838e-05
6.732685869792476e-05,5.432238140201662e-06,7.240894774440676e-05
0.00013878406025469303,4.952292783855228e-06,7.723423186689615e-05
0.00010294438834534958,1.1742417171944908e-07,7.844889478292316e-05
-4.342877582530491e-05,-1.0087937880598474e-06,9.303551632910967e-05
-0.00020275713177397847,2.1006892438890645e-06,0.0001038686532410793
-0.0003267322026658803,6.177373506943695e-06,8.787958358880132e-05
-0.0003846188192255795,9.480412700213492e-06,5.4540410928893834e-05
-0.0002674797142390162,8.686131877766456e-06,1.9608505681389943e-05
-5.2650109864771366e-05,4.821785751119023e-06,8.767885447014123e-06
9.594474249752238e-05,-9.694861091702478e-07,2.5277020540670492e-05
9.970308019546792e-05,-6.0115485212008934e-06,3.8759593735449016e-05
2.930991649918724e-05,-7.459571861545555e-06,3.707107316586189e-05
-7.282144360942766e-05,-3.4682348086789716e-06,3.021997144969646e-05
-0.00019486271776258945,-3.6221652521817305e-07,1.929585778270848e-05
-0.0002784929529298097,-5.00892292620847e-06,-2.6304592211090494e-06
-0.00026301672914996743,-1.378184424538631e-05,-3.2958352676359937e-05
-0.00015194427396636456,-2.0062354451511055e-05,-6.010964352753945e-05
-2.6250871087540872e-05,-2.273067002533935e-05,-7.688667392358184e-05
5.404763578553684e-05,-2.0135359591222368e-05,-8.132608490996063e-05
9.244395914720371e-05,-1.0945027497655246e-05,-7.599961099913344e-05
0.00014967317110858858,-1.1887483424288803e-06,-6.907057831995189e-05
0.00022809943766333163,2.1767011730844388e-06,-6.653506716247648e-05
0.00026236692792735994,-9.605449804439559e-07,-6.662199302809313e-05
0.0002088536275550723,-3.450493295531487e-06,-5.921438423683867e-05
0.0001054641033988446,-6.463985187110666e-07,-3.539030149113387e-05
1.0744246537797153e-05,3.2938469303189777e-06,-6.923933142388705e-06
-3.245161860832013e-05,4.6173172449925914e-06,1.0485023267392535e-05
-3.658068089862354e-05,5.412316113506677e-06,1.6945625247899443e-05
-5.0696729886112735e-05,4.948868536303053e-06,1.6040135960793123e-05
-0.00010836732690222561,4.171768523519859e-06,1.648731813475024e-05
-0.00010393967386335135,4.196464033157099e-06,2.2781816369388252e-05
8.080694533418864e-05,-4.752507152261387e-07,3.1571591534884647e-05
0.00033082577283494174,-8.317944775626529e-06,4.2646508518373594e-05
0.0005390151636675,-8.402651474170852e-06,5.3366238716989756e-05
0.0006651139119639993,-7.127442586352117e-06,5.6571123423054814e-05
0.0006095122662372887,-8.547158358851448e-06,6.410488276742399e-05
0.0003836638352368027,-7.333754638239043e-06,8.332429570145905e-05
0.00012095447891624644,1.2708662779914448e-06,0.00010531979205552489
-0.0001065528194885701,1.1697838999680243e-05,0.00011824176908703521
-0.00032040136284194887,1.53183464135509e-05,0.0001110927842091769
-0.00046215401380322874,9.84177768259542e-06,8.398624777328223e-05
-0.0004375485877972096,-5.4318588809110224e-06,4.494565291679464e-05
-0.000368562585208565,-2.2818192519480363e-05,1.0039043445431162e-05
-0.0003997650055680424,-3.2140866096597165e-05,-8.707461347512435e-06
-0.0004236006352584809,-2.9186672691139393e-05,-6.8472381826722994e-06
-0.0003281226381659508,-1.8203278159489855e-05,1.072129362000851e-05
-0.00017865370318759233,-5.8750633797899354e-06,3.03369542962173e-05
-6.260344525799155e-05,8.157385309459642e-07,3.361261042300612e-05
-7.295390787476208e-06,1.7850662743512657e-06,1.9528495613485575e-05
1.760826307872776e-06,1.926294316945132e-06,1.0642385177561664e-06
5.318569492374081e-06,3.0125656849122606e-06,-1.2775395589414984e-05
2.6464707843842916e-05,3.2846319300006144e-06,-1.9409493688726798e-05
5.276187584968284e-05,4.0290078686666675e-06,-2.2636599169345573e-05
7.853367424104363e-05,2.7437572498456575e-06,-3.35966979037039e-05
9.438354754820466e-05,-8.456908631160331e-07,-4.6552318963222206e-05
7.857353193685412e-05,-1.6233489077421837e-06,-4.8318277549697086e-05
4.453288784134202e-05,7.682879754611349e-07,-4.7419820475624874e-05
1.5178357898548711e-05,4.657154477172298e-06,-3.692754762596451e-05
-6.8172492319718e-05,1.1438383808126673e-05,-6.171765562612563e-06
-0.00017345987726002932,1.96318251255434e-05,2.4563749320805073e-05
-0.00018046580953523517,2.2220405298867263e-05,3.4461951145203784e-05
-0.00011301410995656624,1.9266179151600227e-05,3.366257806192152e-05
-5.507936293724924e-05,8.962543688539881e-06,2.5687993911560625e-05
-3.354021464474499e-05,-8.327344403369352e-06,1.1252995136601385e-05
-1.5669753338443115e-05,-2.0195926481392235e-05,5.706948286388069e-06
4.028891635243781e-05,-2.204264819738455e-05,1.7475638742325827e-05
0.00010959692008327693,-1.6207746739382856e-05,4.058940976392478e-05
0.00015470261860173196,-9.341984878119547e-06,6.0402144299587235e-05
0.00017761203343980014,-7.56412146074581e-06,6.789945473428816e-05
0.00017154679517261684,-1.048054764396511e-05,6.776453665224835e-05
0.00010498867050046101,-1.4408519746211823e-05,6.648532144026831e-05
1.6346513803000562e-05,-1.751361742208246e-05,6.495673733297735e-05
-2.6592195354169235e-05,-1.760432314767968e-05,6.443687016144395e-05
-3.5951248719356954e-05,-1.2747182154271286e-05,6.320009561022744e-05
