-1.1430858648964204e-05,-1.0911882782238536e-05,8.375911420444027e-05
-1.4648889191448689e-05,-7.60789498599479e-06,9.249165304936469e-05
-2.109467277477961e-05,-3.552054977262742e-06,0.00010327343625249341
-2.2100392016000114e-05,-2.637184252307634e-06,0.00010460920020705089
-1.1833720236609224e-05,-4.0061177060124464e-06,9.666292316978797e-05
-1.977396323127323e-06,-5.936327852396062e-06,9.073141700355336e-05
2.8361364456941374e-07,-7.2780258051352575e-06,9.248581773135811e-05
-3.45629928233393e-06,-8.552977305953391e-06,9.137815504800528e-05
-8.636109669168945e-06,-1.0725206266215537e-05,8.328722469741479e-05
3.3689291285554646e-06,-9.950581443263218e-06,7.513711170759052e-05
3.064170232391916e-05,-7.2395187089568935e-06,5.545984458876774e-05
3.484007538645528e-05,-7.880659723014105e-06,7.740931323496625e-06
2.843381707862136e-06,-8.518901267962065e-06,-3.780779297812842e-05
-3.7536839954555035e-05,-1.3944500096840784e-06,-5.495684308698401e-05
-5.3691310313297436e-05,8.303569302370306e-06,-6.382476567523554e-05
-4.074312892043963e-05,1.1763657312258147e-05,-7.59326430852525e-05
-2.3945844077388756e-05,1.1620102668530308e-05,-8.527369936928153e-05
-1.2306363714742474e-05,1.058506404660875e-05,-9.286750719184056e-05
1.5286752841348061e-06,9.460623004997615e-06,-0.0001012186985462904
8.319781841237273e-07,6.301271696429467e-06,-9.709548612590879e-05
-2.039826722466387e-05,3.7675997077712964e-07,-7.806638313923031e-05
-3.4183285606559366e-05,1.2131857829444925e-06,-4.2370458686491475e-05
-3.2091331377159804e-05,1.7505566574982367e-05,-4.729123702418292e-06
-2.2158934370963834e-05,4.2106428736587986e-05,8.472225999867078e-06
-8.011150384845678e-06,6.263451359700412e-05,-1.604618228157051e-05
9.12243194761686e-06,6.845302414149046e-05,-6.34343596175313e-05
2.2697980966768228e-05,5.566237086895853e-05,-8.648207585792989e-05
2.7115524062537588e-05,2.6646819605957717e-05,-6.480653246399015e-05
1.570830681885127e-05,-1.9032931959372945e-05,-2.076130112982355e-05
-2.3762952423567185e-06,-7.40491523174569e-05,1.5527895811828785e-05
-1.2147199868195457e-06,-0.00010601789108477533,3.6782093957299367e-05
1.6706142559996806e-05,-8.742945647099987e-05,5.212777614360675e-05
2.2119922505225986e-05,-4.239693225827068e-05,7.424694922519848e-05
1.1848312169604469e-05,-1.1769458069466054e-05,9.532114927424118e-05
4.548843207885511e-06,-4.31573471360025e-06,0.00010524002573220059
3.847067546303151e-06,-4.601476575771812e-06,0.00011176220868946984
1.5825271475478075e-05,-3.4872912237915443e-06,0.00011471443576738238
3.5039454814977944e-05,-1.5865794011915568e-06,0.00010484809172339737
3.808707697317004e-05,7.677899702684954e-07,8.686675573699176e-05
2.1575053324340843e-05,2.8062194701306e-07,6.956150900805369e-05
4.527455075731268e-06,-1.103273802982585e-06,6.209446291904896e-05
-9.009630730361096e-07,4.882324446953135e-06,6.267514254432172e-05
2.273863174195867e-06,1.0753426067822147e-05,5.883819540031254e-05
2.5857536911644274e-06,6.907539955136599e-06,4.621600965037942e-05
-6.420309546228964e-06,-1.0855316077140742e-06,1.5997118680388667e-05
-9.688112186267972e-06,-2.673900553418207e-06,-2.2100226487964392e-05
-1.6088525853774627e-06,5.847093120792124e-07,-3.943411138607189e-05
5.380367838370148e-06,1.4695971231049043e-06,-3.90289569622837e-05
7.330079824896529e-06,1.353649622615194e-06,-3.5303757613291964e-05
5.960459361631365e-07,2.2628660190093797e-06,-3.78065014956519e-05
-9.529880117042921e-06,4.759419425681699e-06,-4.6912278776289895e-05
-1.1054799870180432e-05,4.980740868631983e-06,-5.878643423784524e-05
-3.0461199003184447e-06,3.094301064265892e-06,-7.613029447384179e-05
4.004368292953586e-06,1.0801936696225312e-06,-8.869326848071069e-05
3.4939930628752336e-06,-4.972329747943149e-07,-8.401187369599938e-05
-4.551652182271937e-06,-1.8859637975765509e-06,-6.0799080529250205e-05
-1.3785695045953616e-05,-1.9180210983904544e-06,-3.203518281225115e-05
-1.4197183190844953e-05,-1.438577442058886e-06,-8.09989887784468e-06
-8.755892849876545e-06,-2.4845151074259775e-06,8.227466423704755e-06
-9.396499990543816e-06,-3.9593833207618445e-06,1.4805183127464261e-05
-1.722057641018182e-05,-6.8509307311614975e-06,1.437364517187234e-05
-2.1590120013570413e-05,-7.756542800052557e-06,2.6284602427040227e-05
-2.2267508029472083e-05,-4.223096766509116e-06,5.536542084882967e-05
-2.0011635569971986e-05,-1.6874351160822698e-07,7.923640077933669e-05
-1.0931348697340582e-05,2.505856571133336e-07,8.092500502243638e-05
3.6920258139616635e-07,-2.2371650629793294e-06,6.647396367043257e-05
8.404587788390927e-06,-7.445134542649612e-06,5.899159441469237e-05
1.1025169442291372e-05,-1.0579304216662422e-05,7.843109051464126e-05
5.029649400967173e-06,-8.611522389401216e-06,0.00010879374895012006
-8.794302175374469e-07,-4.282022018742282e-06,0.000122779980301857
2.7833314106828766e-06,4.959477337251883e-06,0.000122897865367122
1.0570291124167852e-05,1.111037636292167e-05,0.00011306503438390791
2.051164847216569e-05,6.682956609438406e-06,8.757437899475917e-05
2.173509892600123e-05,-2.381732656431268e-06,5.2511299145407975e-05
1.573400732013397e-05,-6.1172604546300136e-06,3.184641172992997e-05
1.4235357411962468e-05,-2.1687512798962416e-06,3.613542139646597e-05
1.0566768651187886e-05,1.40289466799004e-06,5.1449620514176786e-05
-2.944494099210715e-06,2.195548631789279e-06,6.283691618591547e-05
-1.8196009477833286e-05,3.516075366860605e-06,5.9436635638121516e-05
-2.4046295948210172e-05,8.609346878074575e-06,3.123332135146484e-05
-1.835198600019794e-05,1.6269510524580255e-05,-1.7574804587638937e-05
-6.258598659769632e-06,2.443189441692084e-05,-5.476055230246857e-05
-6.233157364476938e-06,2.911267256422434e-05,-6.0997834225418046e-05
-1.4803772501181811e-05,2.7645395675790496e-05,-5.8705110859591514e-05
-4.079152859048918e-06,2.1846417439519428e-05,-7.293513772310689e-05
2.4376628061872907e-05,1.2636314750125166e-05,-9.129989484790713e-05
3.0000424885656685e-05,-1.5918712961138226e-06,-9.203961963066831e-05
2.866575641746749e-06,-2.416258939774707e-05,-8.223800250561908e-05
-2.8497663151938468e-05,-4.8917296226136386e-05,-7.545662083430216e-05
-4.718183845398016e-05,-5.686653094016947e-05,-7.85889060352929e-05
-4.305717084207572e-05,-4.039636769448407e-05,-8.55006292113103e-05
-1.51962040035869e-05,-1.319594775850419e-05,-7.274803647305816e-05
1.6249596228590235e-05,4.640300176106393e-06,-3.382032082299702e-05
4.530324076768011e-05,7.244166681630304e-06,1.4046246178622823e-05
6.548607052536681e-05,3.440676664467901e-06,5.027311635785736e-05
5.8107616496272385e-05,-5.0786297833838034e-06,5.3534324251813814e-05
4.186890146229416e-05,-1.830063047236763e-05,3.587838727980852e-05
2.958680306619499e-05,-2.256849802506622e-05,1.908713784359861e-05
7.849448593333364e-06,-8.172493835445493e-06,1.5638199329259805e-05
-8.1479765867698e-06,1.0498518349777441e-05,3.0692499422002584e-05
-6.611545813939301e-06,1.9136607079417445e-05,6.0418868088163435e-05
4.122938207729021e-06,1.6604461052338593e-05,9.456544648855925e-05
1.2592470739036798e-05,8.895935025066137e-06,0.00011153180821565911
8.791795153229032e-06,2.5045781057997374e-06,0.00011101010022684932
-1.8943331951959408e-06,-2.7021729920306825e-07,9.98826653813012e-05
-1.8174067690779339e-06,-8.125697945615684e-07,8.502612763550133e-05
7.031785116851097e-06,-1.1949414329137653e-06,7.039641786832362e-05
8.116646313283127e-06,-1.023494064611441e-06,6.136056617833674e-05
2.4284195987434032e-08,-1.3899189577060156e-09,5.907901140744798e-05
-9.565264008415397e-06,1.2525842976174317e-06,5.754804806201719e-05
-7.767386705381796e-06,2.2561494006367866e-06,5.1076338422717527e-05
1.2497173884185031e-05,4.15238855566713e-06,3.7021916796220466e-05
4.053435259265825e-05,7.117350378393894e-06,1.1032127076759934e-05
5.6683154980419204e-05,9.994058018492069e-06,-2.5355806428706273e-05
5.6402775953756645e-05,1.0524349818297196e-05,-4.765831181430258e-05
4.3686319258995354e-05,1.0689022929000203e-05,-4.766451093018986e-05
2.2404963601729833e-05,1.244009308720706e-05,-4.1199851693818346e-05
1.1936507689824793e-05,1.2423289263097104e-05,-3.9617436414118856e-05
2.0795705495402217e-05,7.09416099198279e-06,-4.6196186303859577e-05
2.7658978069666773e-05,-4.1442367546551395e-06,-6.921644671820104e-05
2.39662840613164e-05,-1.1100452866230626e-05,-9.340680117020383e-05
1.4745141015737318e-05,-7.246353561640717e-07,-9.284162661060691e-05
8.830536899040453e-06,9.94061520032119e-06,-6.766841397620738e-05
8.247083314927295e-06,2.683511411305517e-06,-3.493363328743726e-05
8.404496725233912e-07,-1.1757383617805317e-05,-1.1553085641935468e-05
-1.3444382602756377e-05,-2.8541526262415573e-05,-3.5708436030290613e-07
-1.4281767107604537e-05,-4.8812646127771586e-05,7.317565177800134e-06
-4.07988227379974e-06,-6.994001159910113e-05,1.6481077182106674e-05
-6.763903570572438e-07,-7.806971552781761e-05,2.464818680891767e-05
-8.251273357018363e-06,-6.226036930456758e-05,4.173612978775054e-05
-1.8502365492167883e-05,-3.034230030607432e-05,6.258879147935659e-05
-2.1949676010990515e-05,6.111987204349134e-06,7.465893577318639e-05
-1.3683503311767709e-05,4.4139833335066214e-05,8.609329961473122e-05
1.7325975250059855e-06,7.312241359613836e-05,0.00010448228567838669
1.0125961125595495e-05,7.534144970122725e-05,0.00012528897786978632
6.160682914924109e-06,5.349555431166664e-05,0.0001353854895569384
-9.248708920495119e-06,2.755583955149632e-05,0.00013188588491175324
-2.2077087123761885e-05,1.2926512681588065e-05,0.00011826731497421861
-1.734042052703444e-05,8.39769472804619e-06,9.967576625058427e-05
-5.785212238151871e-07,6.628944447584217e-06,8.212673128582537e-05
3.279072871009703e-06,1.4861541330901673e-06,6.821284478064626e-05
-9.082642463908996e-06,-6.134886461950373e-06,5.544553278014064e-05
-2.3820388378226198e-05,-9.445289833820425e-06,5.0294289394514635e-05
-3.346307130414061e-05,-6.913385277584894e-06,4.971403905074112e-05
-2.683965431060642e-05,-1.748050067362783e-06,3.292936162324622e-05
-8.577973858336918e-06,3.732133563971729e-06,-6.261701628318406e-07
-4.785773853654973e-06,6.15402450421243e-06,-2.8111955543863587e-05
-1.1181600712006912e-05,5.003054866392631e-06,-3.2006693800212815e-05
-1.907126534206327e-05,2.727446371864062e-06,-1.7926771761267446e-05
-3.9580438169650733e-05,4.2815761958081566e-07,-1.3802896319248248e-05
-5.6624725402798504e-05,2.7761791443481343e-07,-4.356740100774914e-05
-6.099558959249407e-05,1.9636577235360164e-06,-8.837856876198202e-05
-5.3684794693253934e-05,1.6801559468149208e-06,-0.00010788948566187173
-3.238497083657421e-05,1.242106350218819e-06,-9.273539762943983e-05
-1.4396772712643724e-05,1.617900124983862e-06,-6.294083141256124e-05
-1.1130767234135419e-05,1.4725408163940301e-06,-3.5164957807864994e-05
-2.0273522750358097e-05,-2.3427378437190782e-06,-2.4188440875150263e-05
-3.561925041140057e-05,-6.431499514292227e-06,-2.2648475351161323e-05
-5.092097489978187e-05,-5.157360646990128e-06,-8.697535122337285e-06
-5.148301352164708e-05,-2.1037610622443026e-06,1.2178635188320186e-05
-4.007624738733284e-05,-3.909812221536413e-06,1.6908763427636586e-05
-3.086937795160338e-05,-1.1205598639207892e-05,-3.981305326306028e-06
-2.4887354811653495e-05,-1.959189830813557e-05,-2.5264049327233806e-05
-2.1618172468151897e-05,-2.2928225007490255e-05,-1.2663096640608273e-05
-1.7510330508230254e-05,-1.8853668734664097e-05,3.3917996915988624e-05
-8.169738066499121e-06,-1.1873451512656175e-05,8.417607023147866e-05
-3.1784037446414004e-07,-7.333714620472165e-06,0.00011082101991632953
-2.3976274405868025e-06,-9.31469003262464e-06,0.00011165002797497436
4.4064532289667113e-07,-1.4451180504693184e-05,0.0001027217076625675
8.687301487952936e-06,-1.5468918718397617e-05,9.374205546919256e-05
1.9449284991424065e-06,-9.939197298081126e-06,7.799150625942275e-05
-1.2756273463310208e-05,2.1385690160968807e-06,5.3820462198928e-05
-1.4843850294710137e-05,1.852081186370924e-05,3.886615013470873e-05
-1.2478686585382093e-05,3.1239706004271284e-05,3.677084168884903e-05
-1.2997233170608524e-05,3.462714812485501e-05,3.706849383888766e-05
-1.5180008631432429e-05,2.93267748929793e-05,3.368667239556089e-05
-1.5391542547149584e-05,3.1791376386536285e-05,2.8922591809532605e-05
-5.5697173593216576e-06,4.353106487542391e-05,2.4437209503958002e-05
-2.09228414860263e-06,4.873024590779096e-05,1.3077615221845917e-05
-1.899616290756967e-05,3.344046126585454e-05,-8.480813448841218e-06
-3.519052916090004e-05,-1.587376755196601e-05,-3.8558762753382325e-05
-3.877800554619171e-05,-7.804404594935477e-05,-5.485236397362314e-05
-3.2516723877051845e-05,-9.824953303905204e-05,-4.73968502774369e-05
-2.1934025426162407e-05,-6.751434557372704e-05,-3.4883414627984166e-05
-2.070742630166933e-05,-2.832436621247325e-05,-3.545389699866064e-05
-3.574752918211743e-05,-9.05942670215154e-06,-4.1028215491678566e-05
-5.07245167682413e-05,-7.524038210249273e-06,-5.117325417813845e-05
-5.074427099316381e-05,-9.171969395538326e-06,-7.352288230322301e-05
-4.050897405249998e-05,-7.807365363987628e-06,-9.340022370452061e-05
-2.038823367911391e-05,-4.308560619392665e-06,-9.211838914779946e-05
4.919823823001934e-06,-3.435232201809413e-06,-6.652002048213035e-05
2.4834482246660627e-05,-4.210275164950872e-06,-4.184108547633514e-05
4.342025931691751e-05,-2.3470963697036495e-06,-3.7200734368525445e-05
6.294228660408407e-05,-1.5534651538473554e-06,-4.353264012024738e-05
6.688587018288672e-05,-5.9226822486380115e-06,-3.8266203773673624e-05
5.333929220796563e-05,-9.18477508093929e-06,-1.3257389582577161e-05
3.530443791532889e-05,-5.000033979740692e-06,2.4047389160841703e-05
2.0859088181168772e-05,2.881360785522702e-07,5.5702210374874994e-05
1.963016802619677e-05,-1.5061272051752894e-06,7.74232394178398e-05
2.8244008717592806e-05,-6.806658802815946e-06,9.526569920126349e-05
3.228192144888453e-05,-8.766274731897283e-06,0.00011411325249355286
2.717899224080611e-05,-7.144063147279667e-06,0.00013131459127180278
1.558721123728901e-05,-5.812817562400596e-06,0.00014111195923760533
8.25700226414483e-06,-7.836695658625104e-06,0.00013743835734203458
1.3118439710524399e-05,-1.0882867172767874e-05,0.00011949269537581131
1.8957918655360118e-05,-6.974573807383422e-06,9.519982268102467e-05
1.7847618437372148e-05,-3.215478443507891e-07,7.353413820965216e-05
1.9321236322866753e-05,2.544101789681008e-06,6.133580609457567e-05
2.143597521353513e-05,2.3937654987093993e-06,5.529677582671866e-05
2.2011106921127066e-05,-6.483603431917118e-09,5.214261182118207e-05
2.298320032423362e-05,-1.0724567118813866e-06,4.678754703490995e-05
2.3554910512757488e-05,1.3384654948822572e-06,3.84671293431893e-05
2.0188370399409905e-05,3.4834135931305354e-06,2.0591589418472722e-05
1.8387769159744494e-05,4.300460659578675e-06,-1.4947246427254868e-06
2.1003179426770657e-05,4.48008631792618e-06,-1.6055568266892806e-05
2.376653537794482e-05,3.617041102188523e-06,-2.3695396521361545e-05
2.3059452360030264e-05,5.2760638027393725e-06,-3.331695916131139e-05
1.3669598956767004e-05,8.551614882890135e-06,-5.1467308367136866e-05
1.3250297570266412e-06,1.063032050296897e-05,-7.178643863881007e-05
-3.7235672607494052e-06,9.567868801241275e-06,-8.130157220875844e-05
-6.828277605563926e-07,7.446327344950987e-06,-7.51266343286261e-05
4.976079253538046e-06,7.130539415811654e-06,-5.974472514935769e-05
1.5528008589171804e-05,9.654543646320235e-06,-3.7338359106797725e-05
2.550801400502678e-05,1.0728599590947852e-05,-1.3259565093903802e-05
2.134838177880738e-05,7.0607056841254234e-06,-3.7797738059452968e-06
1.0928810297627933e-05,1.1547072062967345e-06,-1.919185888255015e-05
1.297905055253068e-05,-4.900838575849775e-06,-4.559144508675672e-05
1.9639366655610502e-05,-8.020972927624825e-06,-4.9089623644249514e-05
2.3683294784859754e-05,-7.470529908459866e-06,-2.088494147756137e-05
2.3685792257310823e-05,-4.721974619315006e-06,2.4714610844966955e-05
1.393009824823821e-05,-1.8553962490841513e-06,6.508273509098217e-05
2.177480610043858e-06,2.4305765577992133e-07,8.849242294672877e-05
-5.572810550802387e-06,-4.232404933190992e-07,0.00011213187099201605
-1.4091390767134726e-05,-2.2841725240141386e-06,0.00014152575749903917
-1.5531866665696725e-05,-2.9242421533126617e-06,0.00016521807992830873
-8.817013622319791e-06,-3.5235227642260725e-06,0.00015836649981793016
-1.4564737966793473e-06,-4.721657205664087e-06,0.00012313053593970835
1.674603282708631e-07,-9.15208784135757e-06,9.118334855884314e-05
-6.230962299014209e-06,-1.4214382645150181e-05,7.669768820051104e-05
-1.0413009476906154e-05,-1.6006935766199604e-05,6.424338062060997e-05
3.851138899335638e-06,-1.2631701792997774e-05,5.1505838200682774e-05
2.9524093406507745e-05,-5.265210347715765e-06,4.432560672285035e-05
4.233562867739238e-05,9.3830512923887e-06,4.6101380576146767e-05
3.512140392558649e-05,3.48643989127595e-05,4.8756457545096055e-05
1.9284147128928453e-05,6.53667957521975e-05,3.427389310672879e-05
1.253417030966375e-05,8.346382674062625e-05,-5.594224603555631e-06
2.0458321159821935e-05,7.548314897576347e-05,-5.704848808818497e-05
3.200641367584467e-05,4.846965384786017e-05,-9.044519538292661e-05
3.15701836370863e-05,1.5331404938478954e-05,-9.171885903924704e-05
2.5760005883057602e-05,-2.0029898223583587e-05,-7.990598533069715e-05
2.4946009943960235e-05,-5.655232962453738e-05,-8.402108505833894e-05
1.6955942555796355e-05,-8.370106661459431e-05,-9.411452629137784e-05
2.4879373086150736e-06,-9.225576650351286e-05,-8.910440374165773e-05
-3.8143368783494225e-06,-8.034450002014637e-05,-7.04739213688299e-05
-2.077531007671496e-06,-5.069911640021019e-05,-6.669855793006718e-05
1.7367730833939277e-05,-1.9499520931276493e-05,-7.624025602126494e-05
4.9742629926186055e-05,-3.1233412300935015e-06,-6.909692456247285e-05
5.320993659552187e-05,-5.898716040064755e-07,-5.054830035078339e-05
2.657647019077558e-05,-5.655092081724433e-06,-3.7992544093867764e-05
1.2210436580062378e-05,-9.161365596810356e-06,-2.0332452550064772e-05
9.299856174038723e-06,-1.0085429494210985e-05,1.1021719501513871e-06
9.495087397226598e-06,-9.788099305296782e-06,1.4168032976158429e-05
8.731953130336478e-06,-7.505368557758629e-06,2.564881469879765e-05
5.909104856982594e-06,-4.901236479781801e-06,4.506236655288376e-05
4.292252469895175e-06,-6.026217761245789e-06,6.481599120888859e-05
1.0573659636747834e-07,-9.441372640139889e-06,7.926719990791753e-05
-8.372820957447402e-06,-1.1117724170617294e-05,8.998544217320159e-05
-1.4008716789248865e-05,-1.0551225386734586e-05,9.855841199168935e-05
-1.1493756574054714e-05,-8.139592864608858e-06,0.00010299069981556386
-1.0431896953377873e-05,-2.3360933028016007e-06,0.00010408479283796623
-1.156693724624347e-05,5.924323431827361e-06,0.00010074289457406849
-1.0132410352525767e-05,1.1070416803704575e-05,9.43445775192231e-05
-3.5064254007011186e-06,1.0834730346687138e-05,8.829769649310037e-05
6.9851894295425154e-06,9.24644700717181e-06,7.976999768288806e-05
1.8511307644075714e-05,9.322264304501005e-06,6.761847907910123e-05
2.359819700359367e-05,8.949557923187967e-06,4.962797902408056e-05
2.2387101125787012e-05,6.580057288374519e-06,3.302233017166145e-05
1.5028081179480068e-05,3.831701178569347e-06,2.5135104806395248e-05
1.7337690678687068e-06,4.408265795063926e-06,1.6871750631253235e-05
-4.240505404595751e-06,4.5948527258588e-06,-5.3543599278782494e-06
3.3165199511131505e-06,1.4737867104486213e-06,-3.42278290190734e-05
6.708389264531434e-06,-4.006983544968534e-06,-5.695839354302734e-05
3.280592864030041e-06,-4.979278401151532e-06,-6.682382081635296e-05
3.3827932384156156e-06,1.852181640060735e-06,-7.201023254310712e-05
5.0514095164544415e-06,6.712325102853356e-06,-7.707719487370923e-05
6.580668923561461e-06,6.30644944976666e-06,-8.547700417693704e-05
-2.9243919925647788e-06,7.988440302142408e-06,-9.140760084846988e-05
-2.468306956870947e-05,1.1211164746782742e-05,-8.453121699858457e-05
-2.841543755494058e-05,1.4147655747365206e-05,-6.95117050781846e-05
-1.46177562783123e-05,1.5485195035580546e-05,-5.3059182391734794e-05
-5.981785761832725e-06,1.2391469681460876e-05,-4.306003756937571e-05
-9.203477020491846e-06,6.479735475295456e-06,-3.3270342100877315e-05
-2.007059993047733e-05,3.375277174200164e-06,-1.4282485608418938e-05
-3.2868403650354594e-05,3.030366542589036e-06,7.979860129125882e-06
-3.818140976363793e-05,2.5226420348190004e-06,1.9339562641107477e-05
-3.1538016628474e-05,-1.5345889323725714e-06,2.4505639885319397e-05
-2.611435775179416e-05,-7.736494808341376e-06,3.9312719309236854e-05
-2.5849529265542515e-05,-1.0459604709467385e-05,5.380776201491244e-05
-2.7804664568975568e-05,-7.656593879801221e-06,5.4711672419216484e-05
-2.4787686925265007e-05,-2.682195145098376e-06,5.444520866149105e-05
-7.327457296923967e-06,4.270191595878714e-07,7.168675074353814e-05
2.4748656869633123e-05,2.275844281030004e-06,0.00010032541467808187
4.655909651773982e-05,3.5521800327842357e-06,0.00012188564869575202
4.297771374695003e-05,3.5228297292633215e-06,0.00012307528231758624
2.4734801627346314e-05,2.0167183265584754e-06,0.0001035201275954023
8.361230356968008e-06,6.719498628626752e-07,7.387127698166296e-05
7.485614787583472e-06,-3.799878243171406e-07,4.838638415094465e-05
1.9464127035462297e-05,-1.6818107440030872e-07,3.853254747809842e-05
2.564785972936079e-05,9.025544613905367e-07,4.774605986312963e-05
2.1646950699505396e-05,2.3434238300978905e-06,6.163501529954374e-05
1.384196639264701e-05,1.2084032050552196e-06,6.423051672754809e-05
1.3874620208298438e-06,5.582815560956078e-07,5.32376034243498e-05
-9.00790655578021e-06,3.43866531693493e-06,2.1720401491620578e-05
-1.3078041774861049e-05,4.536419965006644e-06,-1.6798418073449284e-05
-1.001241344056325e-05,2.227818185929209e-06,-4.182892735116184e-05
5.044434146839194e-06,-2.3751026674290188e-06,-5.222263280302286e-05
2.1007037503295578e-05,-7.949015525809955e-06,-5.573786984314211e-05
2.282207969983574e-05,-9.879870049189776e-06,-5.984510789858177e-05
1.0273635780322365e-05,-1.0052251127490308e-05,-6.969184323679656e-05
-9.786102054931689e-06,-1.0286374163115397e-05,-7.640876719960943e-05
-2.4744414986344054e-05,-3.51940980181098e-06,-6.687994027743116e-05
-1.655722371651791e-05,1.2155625881860033e-05,-4.367840665508993e-05
8.991182767204009e-06,2.9005459509789944e-05,-2.3325626898440532e-05
2.916825542342849e-05,3.955483771278523e-05,-1.891693682409823e-05
3.29065223922953e-05,4.013798388768919e-05,-2.2821512175141834e-05
1.6272097127512097e-05,3.767663656617515e-05,-1.842817982833367e-05
-5.64317360840505e-06,3.309824023745023e-05,2.8105002911615884e-06
-5.8641926443669945e-06,8.636577149445657e-06,2.7809039238491096e-05
1.9255923689343035e-05,-4.328241993789561e-05,3.529533205437474e-05
4.0920149331213906e-05,-8.822447853162885e-05,3.4406286431476474e-05
3.733227276825346e-05,-8.48283598315902e-05,5.0487291446188465e-05
1.4202336387825198e-05,-4.720967262983322e-05,7.61199917178601e-05
-7.5450006988830864e-06,-1.570873791933991e-05,8.877885557012632e-05
-5.844622137374245e-06,-7.491822543670423e-06,9.260105434805155e-05
1.3713070075027645e-05,-1.2732422874250915e-05,0.00010269421909470111
1.991908357013017e-05,-1.635814805922564e-05,0.00012339206296019256
1.0654915968189016e-05,-1.651485035836231e-05,0.00014891514729242772
3.2197849577642046e-06,-1.640526534174569e-05,0.00015457830158993602
1.7333693449472776e-06,-1.0944851965177804e-05,0.00011980041745118797
-3.0923433769203257e-06,-2.854321792256087e-06,6.763103738194332e-05
-1.0113198186445516e-05,-1.3402629974734737e-06,2.928821777459234e-05
-8.460668141196948e-06,-9.455820872972254e-07,2.0728142771986313e-05
3.2711013773223385e-06,-9.915264627124998e-07,2.5679828468128107e-05
1.620677903702017e-05,-6.353558887894906e-07,1.5903933672234416e-05
2.616741585370619e-05,3.4412746572343167e-06,-7.414716947096167e-06
3.0143281037453562e-05,8.318963409692515e-06,-3.997272506239824e-05
2.0523808416328393e-05,1.1177361557201948e-05,-6.438124546548352e-05
7.570912657683948e-06,1.037581569107715e-05,-6.88773361616768e-05
2.0430056792974938e-06,8.78797800396569e-06,-5.5529835663037375e-05
-3.7587847145914566e-06,7.791670213919133e-06,-4.252076178090647e-05
-2.2486330635729246e-05,7.831757102394477e-06,-4.0384889871347696e-05
-4.677047400036827e-05,5.536003754968988e-06,-4.818415254703723e-05
-6.277400825638324e-05,1.5971321545293904e-06,-7.070347055559978e-05
-5.407786738942377e-05,-9.881840696834843e-07,-9.940860036294907e-05
-1.7488717276137322e-05,-2.201733650508686e-06,-0.00010976735939038917
1.982652975129895e-05,-7.850935617170762e-06,-8.889802847988904e-05
2.3528475139755756e-05,-1.8441689462633803e-05,-5.3434800065588206e-05
6.0470592870842665e-06,-2.654009404068347e-05,-2.646337634359952e-05
2.1305313566699624e-06,-2.7925483664148487e-05,-1.5482608432648703e-05
1.873847759270575e-05,-2.1639079932356253e-05,-1.7299875253229402e-05
4.380031896289438e-05,-5.8040527619596105e-06,-2.5769291823962703e-05
5.825109110446647e-05,1.512205653853016e-05,-2.0799823687411845e-05
6.078587466618046e-05,3.09181195916608e-05,7.584310424135765e-06
6.0109257901785895e-05,3.148093310301192e-05,4.2439256503712386e-05
5.720895933336578e-05,2.1714900867664255e-05,6.487830978585407e-05
4.7752546379342675e-05,2.4537312128813937e-05,8.356072066817433e-05
3.5133809433318675e-05,4.061014988110401e-05,0.0001073959720088169
1.777379475242924e-05,4.2784042307175696e-05,0.00012632620928343385
-2.650171154527925e-06,2.557530206104275e-05,0.00013551446318160743
-1.077620436262805e-05,7.4781755756703205e-06,0.00014284637290984392
-6.457859399233712e-06,-8.030953722482082e-06,0.00014416431076824665
1.0678151340925979e-07,-1.941647678904701e-05,0.00013864540960639715
2.1258877040963853e-06,-2.5258928872062825e-05,0.00012552384578157216
1.5550425302990334e-07,-2.67056511802366e-05,0.00011817766062449664
-3.6697363157145446e-06,-2.5416411517653614e-05,0.00012225532555021346
-1.6613772459095344e-05,-2.3260325178853236e-05,0.00011886272113770247
-3.95353308704216e-05,-1.6445241271867417e-05,9.559008321957663e-05
-5.778552440460771e-05,4.011553301097592e-06,6.092534385970794e-05
-4.8701378545956686e-05,2.9093655030010268e-05,1.3108487110002898e-05
-1.1908771739399526e-05,3.584009027690627e-05,-5.9982456150464714e-05
3.040182673430536e-05,1.9676659576362e-05,-0.00013887372915633023
6.042976019671187e-05,9.106449994078503e-08,-0.000183393873157911
6.297475192695856e-05,-8.489672836731188e-06,-0.00016931055870372802
2.9311042453628033e-05,-1.3811544704367407e-05,-0.00012964704365003854
-1.5094682566996198e-05,-2.6353194698458537e-05,-0.00010619794920785353
-3.945864591514692e-05,-4.0840281144483015e-05,-0.00010110907896887511
-4.115686169825494e-05,-4.169660314801149e-05,-9.698349458631128e-05
-2.354702701268252e-05,-2.5208450097125024e-05,-9.112861152971163e-05
-2.4011558252823306e-06,2.564737314969534e-06,-8.118461119011045e-05
2.1040800675109494e-06,3.554713475750759e-05,-6.391568604158238e-05
6.636429361606133e-08,5.120232890476473e-05,-4.308503048378043e-05
1.9991957742604427e-06,3.332434062031098e-05,-2.6599936973070726e-05
-1.5649927718186518e-06,8.06855496193748e-06,-1.5466715922229923e-05
-8.173919013643172e-06,-5.7453548834018875e-06,-5.983298251521774e-06
-1.519751731393626e-05,-8.837729183142073e-06,6.726889296260197e-06
-2.877508450183086e-05,-6.532097813760629e-06,2.3123289793147705e-05
-3.766881854971871e-05,-3.679554083646508e-06,4.486384568735957e-05
-3.360690243425779e-05,6.639201046709786e-07,6.740641401847824e-05
-2.604523251648061e-05,4.679629000747809e-06,8.286470983875915e-05
-2.2481419364339672e-05,6.9670368247898296e-06,9.485766349826008e-05
-2.7854510335600935e-05,5.8186078604194336e-06,0.0001055628526955843
-3.224976171622984e-05,3.5508985547494376e-06,0.00011425266711739823
-2.326239518879447e-05,3.123883800526528e-07,0.00012095567944925278
-5.6755502555461135e-06,-4.481398718780838e-06,0.0001255105307791382
6.932060387043748e-06,-7.602133337059058e-06,0.00012660132779274136
1.0087934242619667e-05,-7.592721885885112e-06,0.00012233977031428367
3.820169695245568e-06,-5.109206995257409e-06,0.0001132910474552773
-4.563882612274028e-06,-2.047894668066874e-06,0.00010262466821586713
-1.7334175481664715e-06,-5.726628842239734e-07,8.651189273223281e-05
7.4048621172551066e-06,-2.5218637347279582e-06,5.8950459788320586e-05
7.161974735936383e-06,-4.947880825056927e-06,2.664468229340855e-05
2.6334686253903783e-07,-5.03466981172096e-06,7.830425602151081e-06
-2.3603904537594644e-06,-4.472752152651083e-06,-1.2549468237921246e-06
-6.233542535483139e-06,-2.6366260499344207e-06,-1.8102196918334812e-05
-1.0239244147669524e-05,4.9127334023069125e-06,-3.6898567486787215e-05
-9.276792297896463e-06,1.7897089492180385e-05,-5.135517130838707e-05
-9.309075721830595e-06,2.6168163458351046e-05,-6.569256947841495e-05
-6.9863708631601185e-06,2.7140813472215086e-05,-7.58706228225492e-05
7.92510218161624e-06,2.4643952201586217e-05,-7.997570355655625e-05
1.734984471113421e-05,1.5481071386602707e-05,-8.177178824553266e-05
1.4545089470630046e-05,-1.8657740383787313e-06,-8.361642539966851e-05
4.564333266898757e-06,-2.7240914278081618e-05,-7.42907213862054e-05
-1.679846718616318e-05,-5.313159272191115e-05,-5.38298518222291e-05
-2.9724840715061873e-05,-6.340243271552026e-05,-3.105501673417166e-05
-2.6496065402170643e-05,-4.767106656800024e-05,-1.2551062354759779e-05
-1.4020519301993772e-05,-2.000355198106263e-05,-5.276843239698792e-06
-2.9766636089334497e-06,-1.986745701287873e-06,-5.656928806274664e-06
-2.702057599890395e-06,2.4227160793088842e-06,-2.0035397483297857e-06
-3.586740376704256e-06,-1.004762452794239e-06,1.5191425518423785e-05
1.400635483150836e-05,-4.737170911539579e-06,4.388191518955864e-05
3.651225779321976e-05,-8.022354904824169e-07,6.5058127802331e-05
3.2914409530349076e-05,1.3882243365515023e-05,6.498654693132266e-05
6.248854333534837e-06,2.9097984224790707e-05,6.292304169619456e-05
-2.3538786990684457e-05,3.402726724743843e-05,8.157745469361544e-05
-4.0338258258998394e-05,2.6303832783014514e-05,0.00011174224346177652
-3.49141082551796e-05,1.1341012395860162e-05,0.00012696361227426678
-1.3714460692426655e-05,-4.2651013245631475e-06,0.00011946585436817259
9.710567610454746e-06,-2.0119636246818118e-05,0.00010285802272846922
3.452864257269539e-05,-3.784168075071648e-05,9.278536163037643e-05
5.079161928733811e-05,-4.728061321657151e-05,8.64894172991626e-05
4.0782775613479316e-05,-4.0499362512491643e-05,7.19514355296269e-05
1.4200520126905758e-05,-2.6917557988781482e-05,4.853272912441753e-05
1.1874172969328356e-06,-2.23933020606637e-05,2.730295636865776e-05
7.831990842532832e-06,-2.508251964172814e-05,2.1998024749336764e-05
2.3524806238128804e-05,-2.4014501832425594e-05,2.7586303986026905e-05
2.7980035156360827e-05,-2.2242709746933542e-05,2.2363470634445548e-05
1.5461895600310527e-05,-2.1255567844491452e-05,-4.7707649173389655e-06
3.509494717945927e-06,-2.162451528420206e-05,-4.2432930058566853e-05
-6.052719982108101e-06,-1.7600166756892577e-05,-6.979482714086771e-05
-1.353429615846835e-05,-7.411202204821166e-06,-8.162926678778604e-05
-1.0863841453101486e-05,5.028774126003555e-07,-8.658615843160078e-05
-2.99696012007189e-06,1.1490687938930932e-05,-9.694614709587768e-05
7.237713930408063e-07,3.325642683194019e-05,-0.00010504946840228513
3.441157332417788e-07,5.748985495301895e-05,-9.689444414107129e-05
-8.653879376652185e-06,6.607816612813622e-05,-7.499640196328983e-05
-2.1323263354133815e-05,5.901611802983098e-05,-5.403874456533231e-05
-2.2210393581190147e-05,5.300497650750913e-05,-4.244457159074955e-05
-1.5689140127506107e-05,5.393728497438133e-05,-3.4131899155909196e-05
-1.5024376807559747e-05,4.968270513927564e-05,-2.699245305848308e-05
-1.9937368051614612e-05,2.3312109988182783e-05,-2.035889519902412e-05
-2.122824480466079e-05,-2.7264475647825748e-05,-1.2502864592534024e-05
-1.1486075891298242e-05,-7.775336416671053e-05,4.4752400185643637e-07
8.740275916352402e-06,-8.871108730090782e-05,2.116866562573705e-05
2.701989797060378e-05,-5.657528163283132e-05,4.789917511516251e-05
2.6539188183960505e-05,-1.809632703952957e-05,7.06097562215291e-05
9.732573744258843e-06,-8.696342206349073e-07,8.736536256037652e-05
-1.1210149750695564e-05,-2.898866796385846e-06,0.00010318209388060495
-3.392773578525521e-05,-7.978800567798316e-06,0.00011681612522806972
-4.564683331409469e-05,-9.348376806883607e-06,0.00012482726015150547
-3.2871015719138086e-05,-7.494772489735624e-06,0.00012814933143090457
-5.11106964040664e-06,-2.38921575146378e-06,0.00012635158782359213
2.5590756195015274e-05,-1.3740540225626319e-06,0.00011737816384993494
5.1623435865622014e-05,-2.230248810519697e-06,9.362063428852707e-05
5.984149902360514e-05,1.2140800436100108e-06,7.179684325819835e-05
4.8215268179774284e-05,3.5295304314786335e-06,7.683540025027469e-05
2.4658029360580258e-05,2.666322188815684e-06,8.967029862105846e-05
-3.1226893497660058e-06,-7.091586553542584e-07,8.217564754886553e-05
-1.0448815373820253e-05,-5.180810148885939e-06,4.755799091071822e-05
1.7241776504306472e-06,-8.097701538645197e-06,1.0060971362690907e-05
1.6547792256460525e-05,-8.104244443529751e-06,-2.1748321159975603e-05
3.162426583003253e-05,-4.829275894735474e-06,-4.728945350507274e-05
3.711470708367415e-05,-1.1449325256762677e-06,-5.7836332416627556e-05
2.806536213029176e-05,1.598787093826104e-06,-5.944285658188164e-05
1.669524863245897e-05,5.1584033826657105e-06,-6.0235935961827636e-05
9.14534211915452e-06,6.867071988381213e-06,-6.435084651457146e-05
5.54629014004604e-06,7.476057362509891e-06,-7.596141949761659e-05
9.207255970977712e-06,9.197447980113793e-06,-9.298075019614771e-05
1.2421272913343273e-05,1.0139821824850515e-05,-0.00010200676479144022
9.348318599222694e-06,9.06225795915816e-06,-9.376292291563004e-05
3.205989287380362e-06,7.554058356618043e-06,-6.93980764481239e-05
7.977621976351656e-07,5.702564976672875e-06,-4.094537143828347e-05
1.6241983757936396e-06,1.935079353643232e-06,-1.9476745364954695e-05
1.214028884533036e-06,2.1067911859518063e-07,-8.763780897425022e-06
-3.6352519146021223e-06,2.823687509589945e-06,-8.849096047924832e-06
-1.1598464880080428e-05,5.457927272800589e-06,-1.2023746421618853e-05
-1.3780117114947643e-05,5.132694241183344e-06,1.2361641665847856e-06
-4.64925506094005e-06,4.411448117025429e-06,3.570356057025492e-05
6.881170065753395e-06,5.678964498656569e-06,6.142428173916414e-05
7.1811896305007394e-06,6.671919891232392e-06,6.70714580337517e-05
-1.1519269719428848e-05,3.873073183058295e-06,7.297027332242578e-05
-2.6740235625766218e-05,9.901604016704368e-07,8.616689592599869e-05
-1.4588278645533137e-05,1.0976431212839088e-06,0.0001105314731830731
-4.3807381189253647e-07,-3.3492611350993684e-07,0.00012799593969248235
-5.482588676386513e-06,-2.4948717509687413e-06,0.00012032982340315357
-8.347554285137448e-06,-3.1120878247747896e-06,9.777138620847836e-05
-3.166461965520284e-06,-7.221556188596878e-07,7.743600144749507e-05
-2.1738119357905816e-06,3.4808763302862644e-06,6.888947245897725e-05
-1.0408878381440445e-07,5.741618679167004e-06,6.56536576570943e-05
7.178245482464263e-07,6.778173428756418e-06,5.9552068705670536e-05
-4.681187419919297e-06,5.818101726617897e-06,5.134626917424612e-05
-7.0964847509458195e-06,2.8926469894940965e-06,3.9647158700972795e-05
-1.309115646108694e-06,-1.9306966692056449e-07,1.796713149815332e-05
5.700064775737701e-06,-2.686377456484479e-06,-1.2248528946656734e-05
5.5498990150226746e-06,-2.4464995931339217e-06,-3.8742407923564315e-05
-7.035040198388742e-06,-3.0032575182303844e-07,-4.535951666184701e-05
-2.4244911401183344e-05,3.915656634490006e-06,-3.488181755528785e-05
-2.7512864107848145e-05,6.8605754677264486e-06,-2.9167744287406094e-05
-1.2099414561816957e-05,1.2596361784744659e-06,-4.438127143657766e-05
2.969988145196112e-06,-1.1007723514921963e-05,-6.775439396733418e-05
4.446945240488276e-06,-1.5462052033399232e-05,-7.331662345677614e-05
-5.512356892722892e-06,-6.512967956950888e-06,-5.829557267134078e-05
-2.1657393517671153e-05,3.920929430023534e-06,-4.6640445361845195e-05
-3.17995400109794e-05,9.55880659603281e-06,-4.713969610747881e-05
-2.8700014809146523e-05,9.706376658868976e-06,-4.894749145023525e-05
-2.363372186664492e-05,4.667676421377109e-06,-4.037725739181042e-05
-2.494237014616374e-05,-3.074436108363443e-06,-2.7421234335633926e-05
-1.877322756627109e-05,-5.937745754636126e-06,-1.8616521629155613e-05
-1.1352527735652984e-06,-4.411498139234027e-06,-4.930933755531441e-06
2.5020162865985185e-05,-2.770504806903773e-06,1.2419585800671484e-05
3.595208909246139e-05,-2.9144639484002255e-06,3.4173855965491384e-05
1.7942627891898155e-05,-4.10088432545308e-06,5.210098242969252e-05
1.90952118828136e-06,-3.645834794951952e-06,6.104802741901949e-05
-6.449539796449244e-06,-4.228299530950608e-06,7.398159505100921e-05
-1.2415444871294312e-05,-6.8961521719757e-06,9.038185817189515e-05
-1.2951270946359728e-05,-1.063223862729501e-05,9.985008364310488e-05
-8.284482646558899e-07,-1.4404873581952415e-05,9.929827501764521e-05
2.3266125936061144e-05,-1.7336191376671195e-05,9.822112042456865e-05
4.519228605204262e-05,-1.6851698092068546e-05,9.921694436343387e-05
5.0711540097836405e-05,-1.3916009265813045e-05,9.382193820783868e-05
4.326890120864846e-05,-9.14859447220806e-06,7.648408063687384e-05
3.614403249230236e-05,-6.141011454019463e-06,5.7243792980443686e-05
2.5891806217259727e-05,-6.975434189371299e-06,4.659560727304779e-05
6.596938874281477e-06,-1.0021255548053887e-05,4.3024730985052884e-05
-1.0122053936356679e-05,-1.154172878159443e-05,4.0350314520765096e-05
-1.1965964404225815e-05,-8.375151992368046e-06,3.557680975063704e-05
-5.923997377976775e-06,4.4827555711890454e-07,2.343760570511222e-05
3.2569007544225315e-06,1.4465103049587924e-05,-1.2590767255460378e-06
1.1421194358263165e-05,2.5311977879027836e-05,-2.48853575612884e-05
1.2334125131019391e-05,2.4041522920015268e-05,-3.321170515846461e-05
9.95486607280327e-06,1.2791346307494678e-05,-4.071887087775394e-05
1.175928355223732e-05,2.2914593955647433e-06,-6.244607357075438e-05
1.3304549611348193e-05,-3.4224119644932216e-06,-8.380265353480354e-05
8.539488590031397e-06,-3.6067149267182685e-06,-9.744593990035355e-05
-8.475467438984197e-06,-4.298680323699955e-06,-0.0001002811623038724
-2.2557524061994627e-05,-7.521639872720698e-06,-8.871360478224233e-05
-1.4707208720210474e-05,-3.5340610793355154e-06,-6.862403097329661e-05
-1.0597208301987848e-06,7.964354153955355e-06,-4.487951810006052e-05
2.7540174869500333e-06,1.6694959413143806e-05,-2.7616868464974687e-05
1.0761253861346631e-06,1.4705717148899566e-05,-1.9977675037807785e-05
-2.2506228560814634e-06,5.945798420725623e-06,-1.4934937098587397e-05
-3.6994219954067376e-06,-1.7041129467543215e-06,-8.796614565653726e-06
-1.3737843573835562e-06,-5.4007173275749665e-06,4.369102498458233e-06
-3.562442998372717e-06,-5.9952708397759125e-06,2.9051090677967295e-05
-1.0444473446113989e-05,-5.177707407710841e-06,6.045061309123412e-05
-9.124419193540234e-06,-4.463512141228421e-06,8.67513008415699e-05
-1.4443787677009823e-06,-5.238851827016333e-06,9.784095891518518e-05
3.693878056765243e-07,-5.664518084813608e-06,9.376744856126606e-05
-4.706252639152808e-06,-6.843583832960576e-06,8.216714923037216e-05
-1.0861908776860218e-05,-1.0243314136459958e-05,7.484186062356457e-05
-1.4311848644865677e-05,-1.4984187146183103e-05,8.040386455832049e-05
-1.1782962246797979e-05,-1.8993376215803437e-05,9.256480552721769e-05
-5.04609397466993e-06,-2.0891966414637864e-05,9.687128476798534e-05
-2.1174687390157487e-06,-2.0407442207215354e-05,8.676636207383126e-05
-2.21616096496291e-06,-1.9907738533220254e-05,6.9208319473546e-05
-5.128489192429697e-06,-2.053630851150956e-05,5.384083488024771e-05
-1.313582015427528e-05,-2.0837507690885104e-05,4.314305988373235e-05
-1.9897448510164395e-05,-2.0805893655051477e-05,3.4607855923241004e-05
-1.7973279682337306e-05,-1.7850556105258875e-05,2.1846815798198804e-05
-1.1503999303386081e-05,-9.038667485583574e-06,3.874769390677102e-06
-7.27520546206506e-06,3.7048384911031462e-06,-1.9550636352505535e-05
-9.73511123447679e-06,1.3296611541591119e-05,-5.2458060963544995e-05
-1.2627295291167684e-05,1.499503014201764e-05,-7.890328561188653e-05
-4.474355591810308e-06,1.6934714949456975e-05,-8.087119203992188e-05
8.847751814755611e-06,2.3910271920613013e-05,-7.404092320939526e-05
1.1784043635998387e-05,2.642151048348751e-05,-7.979040674399585e-05
1.147872899309732e-05,2.0554736693156883e-05,-8.955207886174321e-05
1.6526479157619178e-05,9.35268781177001e-06,-9.080210293177515e-05
1.812983100535348e-05,2.419646705220657e-07,-8.294474537251517e-05
1.370089921692852e-05,-4.694036306318594e-06,-6.626373215112835e-05
3.116674633929506e-06,-5.723455615225248e-06,-4.355224155005999e-05
-8.284122486656997e-06,-5.290424724080367e-06,-1.921699549711775e-05
-1.3431782463158015e-05,-6.293523256317712e-06,-8.965452025222476e-07
-1.086827614926733e-05,-7.1689692049403675e-06,8.483331839670427e-06
-1.1959423318330664e-05,-5.488236183737172e-06,1.612489541003015e-05
-1.620558941795025e-05,-1.0777841907838592e-06,2.726972525124438e-05
-1.4009393453306984e-05,2.36285814025905e-06,3.7305646401364356e-05
-3.2729881240811665e-06,1.3714916349272244e-06,4.439105396158993e-05
1.2276836969249416e-05,-4.284984242985956e-06,5.334201705409214e-05
2.346810288145207e-05,-6.839080015197396e-06,7.158901280490682e-05
2.154943831556011e-05,-4.120042376598576e-06,9.334975038655102e-05
1.4286027180787642e-05,-1.2708741223832476e-06,0.00010858351743081585
8.597648957220372e-06,5.372518216972821e-07,0.0001228972978424281
-1.7208953977387864e-06,2.23592655856919e-06,0.00013480853522196412
-6.795656645408599e-06,4.337917289376492e-06,0.00013640224642585963
-1.5928061429804075e-06,1.0126253073394764e-05,0.0001332255924353376
1.14302031306579e-06,1.9083157894783653e-05,0.00013004904030822217
-3.4718077586148866e-06,2.3854234314057976e-05,0.0001170005853055045
-4.173253273620503e-06,2.0663126633735374e-05,8.342872752109542e-05
2.7358325951354345e-06,1.0572374776529614e-05,5.614860128844157e-05
1.19997630463331e-05,-1.9100277768302476e-06,4.6710585593245924e-05
6.985553227423225e-06,-1.6014810171327554e-05,3.173816730850376e-05
-1.0264347110933159e-05,-3.5238608688814566e-05,7.559780897281598e-06
-9.072282409761101e-06,-4.767712744069286e-05,-2.1548850781982765e-05
1.584957499289885e-05,-4.0215745684690773e-05,-3.843204467557371e-05
3.511199611239135e-05,-2.0094164938200265e-05,-4.179899042355828e-05
3.294914131402038e-05,-6.205920726642944e-06,-4.323916436987929e-05
1.3709407539863605e-05,-5.764944035036024e-06,-4.878309118794277e-05
-7.05667162037571e-06,-1.1799004823842552e-05,-6.548035889863968e-05
-1.5134796740312595e-05,-1.3499102351488546e-05,-8.384195825783536e-05
-1.589854946359992e-05,-9.23089373827679e-06,-8.244952914537862e-05
-2.0201769075356424e-05,-6.351669981086161e-06,-6.425516039598733e-05
-2.6142948627239093e-05,-5.366145160223823e-06,-5.161701119504869e-05
-2.6688268917496316e-05,-5.480921117850812e-06,-4.8563768359599635e-05
-1.864130717876833e-05,-5.615334885078482e-06,-4.388630259199999e-05
-2.601770120236324e-06,-4.707846073870314e-06,-3.363790165167302e-05
1.1074632311647292e-05,-2.143111714758561e-06,-2.0834646420553327e-05
1.0935399586742278e-05,2.6452235033502802e-06,-6.48791956336936e-06
2.590387339296285e-06,7.462147550540976e-06,7.629778338014148e-06
-1.365428943245206e-06,1.0003980605688412e-05,2.053964271908626e-05
-5.460571628645994e-06,9.286522981710732e-06,3.6802321119466797e-05
-6.157239567983197e-06,6.678289082628908e-06,5.3656462114304304e-05
2.0039767605339875e-06,3.94337575926329e-06,6.311459583230317e-05
9.318448064732365e-06,-1.3704975820871823e-08,7.176325743785128e-05
7.590898349008057e-06,-3.4301913274248363e-06,8.376428013434634e-05
3.724447424247046e-06,-2.7566056814976037e-06,0.00010084825771627948
6.4224741436191835e-06,-8.20047532101853e-08,0.00011310552508803084
1.0920814020209946e-05,1.3277115158416564e-06,0.0001176948135253042
6.148582997411722e-06,2.602956101327436e-06,0.00011884137347806245
-6.884631147840992e-06,2.9057343908789335e-06,0.00010598594235489145
-1.557295399834402e-05,2.117663825629279e-06,8.18458865978755e-05
-2.3165497623267584e-05,2.295843302135836e-07,5.9126388805452734e-05
-3.163802466588095e-05,1.1009262834704714e-06,4.320923471823335e-05
-2.536137071729172e-05,4.6236932575993706e-06,3.650583676062524e-05
-3.1599747671862133e-06,1.0834088243427686e-05,4.1240818973165005e-05
1.826267907745205e-05,2.105135536112357e-05,4.410991459735669e-05
2.8257280064281076e-05,2.9954395358799957e-05,2.8083451979910024e-05
3.026801277883351e-05,3.716913488460705e-05,-4.0867803363653366e-06
2.6573490686132573e-05,4.328337308834307e-05,-3.3850483305286616e-05
1.6746715118642896e-05,4.6624732931377366e-05,-5.1401650125626475e-05
-1.0767099922759371e-07,4.173178967903368e-05,-6.517128349514678e-05
-1.4707672562508378e-05,1.7012325770338066e-05,-7.854915747884661e-05
-5.256729309621733e-06,-3.157117680530064e-05,-8.515079389326274e-05
2.3656839402974583e-05,-7.269132765941322e-05,-8.048011659411713e-05
3.395283783902414e-05,-6.785194273106754e-05,-7.183222624007612e-05
1.716086990199983e-05,-2.8958327675354667e-05,-6.786378799006343e-05
-6.753482466592686e-07,1.861632767941046e-06,-6.562918133568019e-05
-1.0310400284652133e-05,7.890951565059368e-06,-6.266183481784537e-05
-8.495333531755023e-06,7.399850119327311e-07,-5.497472739079967e-05
1.7974717820834485e-06,-4.383591658552177e-06,-3.697762804222293e-05
4.1988691918959375e-06,-6.5250019360973965e-06,-1.6169364243978634e-05
-3.917960839316947e-06,-5.635366505885031e-06,-2.6623852136253845e-06
-1.2827952559746336e-05,-8.325861244884436e-07,1.704102942312602e-06
-1.725959373288788e-05,3.39713619723625e-06,1.0500145435798913e-05
-1.135976617661072e-05,4.336965503171086e-06,3.0405753932427615e-05
-3.3126309517683694e-06,3.5631082937470637e-06,5.1295497542014346e-05
-3.806026143138297e-06,3.5467176076053875e-06,6.770850450266153e-05
-5.714400117540208e-07,4.459381216292968e-06,8.011129830265418e-05
8.0419283676747e-07,5.6218791542050894e-06,9.713990584714338e-05
-4.7563457883370575e-06,5.029962267144583e-06,0.00011996077228104696
-1.5611969956808025e-06,-4.0530051137466216e-07,0.00013536731421481818
1.7344913203487522e-06,-6.4713349274825305e-06,0.00013311777729541063
-4.450094365893165e-06,-7.4454083005548455e-06,0.00011838777572847903
-8.49850766826421e-06,-6.888644293212565e-06,9.467850031796843e-05
-4.078193853729317e-07,-9.275639968109317e-06,6.510879029519856e-05
1.3567702808359172e-05,-1.1780924978666008e-05,3.804777952609584e-05
2.230618520115968e-05,-8.400887054449413e-06,2.3813070583855733e-05
1.7342317732982337e-05,-3.340689772812766e-06,2.5230805476894602e-05
3.85614703191095e-06,-4.348760739958379e-06,3.522707265801728e-05
-1.2433398524080985e-06,-8.48373383632861e-06,3.6766457924386486e-05
6.769211267965147e-06,-7.6043270382797346e-06,1.2641469766094815e-05
1.1859904589073267e-05,-2.91093942905718e-06,-3.116447987849824e-05
7.226698471640702e-06,-9.428892155938229e-08,-6.976895383559167e-05
3.5480379523278316e-08,-9.755017345014494e-07,-8.712879207450897e-05
-1.459748818888329e-05,2.2639663654899778e-07,-8.374811295652762e-05
-2.7628091629594564e-05,4.589653144648764e-06,-7.035762973828241e-05
-2.196475543314591e-05,5.886636245122645e-06,-6.238619971554726e-05
-8.877718755684327e-06,3.6880260267935228e-06,-6.679492071270943e-05
2.3129230157792335e-06,4.634253400581656e-06,-7.304157043108717e-05
1.7169462807942182e-05,9.96906055661384e-06,-5.2015955589013174e-05
2.2325524696498178e-05,1.2439496458682697e-05,-1.9295461243018508e-05
1.5430017811013386e-05,9.673179192759562e-06,-6.164204933156725e-06
1.8691687273530988e-06,3.943390765925869e-06,-1.3487571095538442e-06
-1.2680257896136027e-05,-1.8360257172389538e-06,1.2331489642747329e-06
-7.259216090460541e-06,-1.0847207931874436e-06,-1.1515011237861472e-06
8.418422112299595e-06,2.374333917032345e-06,-1.0615487553877756e-05
1.759830593073275e-05,5.676510568264348e-07,-1.5904362953733653e-05
1.1882205399160739e-05,-4.614318186213495e-06,-2.160227040803875e-06
-7.746464689262211e-06,-1.355377389700152e-05,1.4403779459826183e-05
-2.3805028831702657e-05,-2.5034545615199022e-05,2.546976975281723e-05
-2.8668799131992273e-05,-3.355112494318746e-05,4.0255072235595435e-05
-1.8152344637201168e-05,-3.544850187608972e-05,6.226968980627134e-05
6.532363386213547e-06,-3.427843330428004e-05,8.342904038727283e-05
2.835919258359354e-05,-3.487919821054675e-05,9.334652713732794e-05
2.5807688871282153e-05,-3.531790935085155e-05,9.070280066225678e-05
1.0089678653457668e-05,-3.0029304980416782e-05,8.126586908474565e-05
1.0530911822570488e-05,-1.6324594980687834e-05,6.598645268240944e-05
2.5926678063115105e-05,6.734201747349289e-07,4.365287531982176e-05
3.081432805629447e-05,7.60938291932689e-06,2.3824546588002704e-05
2.071216113108676e-05,1.2375011237963918e-06,2.1205261873546988e-05
9.570911970513407e-06,1.988304575206712e-06,4.412031557876617e-05
3.034495250631153e-07,2.8948523322469555e-05,8.39835629449226e-05
-4.854732651438098e-06,6.829026096966118e-05,0.00011259640450589359
-7.7376353146974e-06,8.52277225931175e-05,9.419055277248845e-05
-1.8026374164037406e-05,6.313599442364648e-05,2.9876558983232826e-05
-2.6958014132105745e-05,2.130354732798878e-05,-4.373216870590113e-05
-1.273660654987907e-05,-4.968470420863014e-06,-9.944450721377507e-05
1.5676956536481157e-05,-8.274393621832132e-06,-0.00012128458183724433
2.8316526368143968e-05,-9.913037501974031e-06,-0.00011500058462843299
1.9452631022431888e-05,-9.968212907551788e-06,-0.00011303203064016998
1.8778404182739905e-06,-3.844431375910062e-06,-0.00011539320985320956
-9.919683634507237e-07,1.3510917824532953e-06,-0.00010023893264587969
3.505507947920705e-06,4.714537226391258e-06,-6.589358963537961e-05
-5.074673936178442e-06,2.116802988894051e-06,-2.584515641501639e-05
-1.9833836631732993e-05,-2.076539885820239e-06,-4.082717623532517e-06
-2.8713931897073053e-05,-5.294557013257872e-06,-1.0525836842134595e-05
-2.2983756934991106e-05,-6.065100478735985e-06,-3.2674386602593586e-05
-1.6545957350899698e-06,-2.5711710804898757e-06,-4.881900895270519e-05
2.2799526050221175e-05,7.998692126420792e-06,-4.399452154757455e-05
2.8414162443368696e-05,2.381742888246663e-05,-2.0000052245450206e-05
1.451734897273127e-05,3.2314903364749625e-05,1.1276178156549577e-05
-4.789062131749233e-06,2.683361162780784e-05,3.662663948489353e-05
-1.5360921679530293e-05,1.3176194443076383e-05,5.288018292048946e-05
-1.2730793059745338e-05,-2.1043037179424573e-07,6.64169347146526e-05
-5.675455213349778e-06,-1.4561966054316144e-05,8.155107934726402e-05
-4.4654593693849165e-06,-3.662754170363769e-05,0.00010239778930554166
-6.650437171629164e-06,-6.43095700070262e-05,0.00012748906738124788
-1.124288701248588e-05,-7.38302042009309e-05,0.0001417709281668067
-2.000260428758338e-05,-5.1059279940091074e-05,0.0001362269977107644
-1.5283409084076993e-05,-1.4606514923798386e-05,0.00011828231799881905
9.913838766806293e-06,7.461191216862062e-06,0.00010537315392866731
2.304639929207042e-05,1.1200486369489226e-05,0.00010995813499903306
8.907019946491346e-06,2.8592119178938447e-06,0.00012302066897973418
-1.6630239770165645e-05,-2.257978849229403e-05,0.00011340502533130348
-2.9777216695947573e-05,-5.759045234299265e-05,6.348758324747905e-05
-1.2541410796984565e-05,-7.5879754149355e-05,7.171827860474878e-07
1.5241096662066411e-05,-5.446761497296393e-05,-4.610977339325473e-05
3.21729457937181e-05,-5.9365283959778026e-06,-7.43396085454151e-05
4.1246024920837954e-05,3.330813706270419e-05,-8.492673805449158e-05
4.3802174332086e-05,5.837965363753028e-05,-7.501563231926411e-05
3.768337410292588e-05,6.603827932849526e-05,-5.9152658650418743e-05
2.5387718778802082e-05,4.7304547479143366e-05,-5.4338990594260395e-05
9.457202395424247e-06,1.193151456391206e-05,-5.898751987842843e-05
-2.9639597869390855e-06,-3.524283965816721e-05,-6.670089351246133e-05
-5.704663635697216e-06,-9.08836955204606e-05,-7.314991671591997e-05
-1.6374367817206803e-07,-0.00011916434596059844,-7.638975512236357e-05
9.860727914201561e-06,-8.112419891403988e-05,-6.470188964158297e-05
1.9350729417055845e-05,-3.2306704156326305e-07,-3.8306745409499854e-05
1.3927269719715696e-05,6.533182749990374e-05,-8.375843208341394e-06
-1.0281986760674044e-05,8.664683991810307e-05,1.501611950516235e-05
-2.963026418001391e-05,7.37198133720085e-05,2.4467412004014477e-05
-2.6644171157386154e-05,4.7531400923617184e-05,2.4764161935308948e-05
-1.215296742884675e-05,2.4583581762271933e-05,3.5081171517958865e-05
-4.229304977343418e-06,1.2148161658842582e-05,6.412178481696174e-05
-7.261966402438702e-06,7.89045043347869e-06,9.863058949122205e-05
-1.4823158380750101e-05,3.906818619725527e-06,0.00011882621038239449
-1.54402332555037e-05,1.2002731182292337e-06,0.00011621416342677549
-1.1090249927292462e-06,2.4948662940005306e-06,9.976446744985878e-05
1.5233526937663555e-05,2.4797334390314063e-06,7.452124555129558e-05
1.9671917470986955e-05,1.6185211961783352e-06,5.769752533524297e-05
1.155095833382802e-05,2.2997960513748694e-06,7.264887972269207e-05
2.2438164251070702e-06,2.9495415674318792e-06,0.00010618474334478378
1.1618525604717433e-05,4.382948645798024e-06,0.00012459882418625057
2.7880589186679572e-05,4.848792741540819e-06,0.00012001136929029599
2.9241011361591518e-05,2.614616278151516e-06,9.807573223952204e-05
2.6301884645363316e-05,2.945780508412099e-08,6.978247984079644e-05
2.149640022253152e-05,-3.900928277289495e-06,5.304247679305263e-05
1.3931219655205496e-05,-7.068610102578532e-06,5.095907545182854e-05
1.0584261872281786e-05,-4.845174771617167e-06,4.5912696805316955e-05
4.44110446551349e-06,4.005134144335898e-07,2.5427312721149065e-05
-3.6868602819595253e-06,2.5535960048728157e-06,-6.352352102112491e-06
-5.022846835345263e-06,2.3040590804157546e-06,-2.913042226282414e-05
-3.1150743780017365e-06,4.937083303957479e-06,-3.5778535675490275e-05
-6.9819770942558534e-06,8.311239071190357e-06,-4.7116540372371674e-05
-1.3814766134601086e-05,6.8476665546768345e-06,-7.450707926182076e-05
-1.6283709555864334e-05,1.3590424714493565e-06,-0.00010604321141727269
-6.935602868907154e-06,-4.473276021599304e-06,-0.00012601604976225644
1.573814188304823e-05,-8.78634637047071e-06,-0.00012648003757931292
3.520113023114391e-05,-9.863886589300819e-06,-0.00011134679516544566
3.0331792004290037e-05,-6.9670609263994265e-06,-9.484218753641471e-05
7.645798177691177e-06,-3.6691531022370327e-06,-7.816535799065605e-05
-1.337558205705136e-05,-1.6431124549853848e-06,-4.988583532394841e-05
-3.102546907030046e-05,1.1024520745195332e-06,-7.83482664701296e-06
-4.4057185732526705e-05,6.212888365553226e-06,3.399928755243309e-05
-5.06010401295498e-05,1.0991944691340905e-05,6.459787982748821e-05
-5.5486416385974735e-05,1.4190244655765127e-05,7.337078568525612e-05
-5.000542296329513e-05,1.183037875307491e-05,5.649622471537441e-05
-1.4525684491673019e-05,6.426242180168629e-06,4.138222720939666e-05
2.7715766918845475e-05,9.367766324430704e-06,4.784445263794623e-05
4.3869775254279375e-05,1.1338805052218959e-05,5.51143275515642e-05
2.6863861421588808e-05,6.949706857994897e-06,6.003586167935282e-05
-7.762269888189621e-06,-1.2621326277439948e-06,7.499962521251291e-05
-1.0949361239909194e-05,-1.3215837498137262e-05,9.2551730631385e-05
1.0657525308488403e-05,-2.0868958017672412e-05,9.601342753740028e-05
1.8413040379527956e-05,-2.0410916476976126e-05,7.870042463764548e-05
1.2166166015958879e-05,-1.8714781617745757e-05,5.604207399301231e-05
2.4265507363452343e-06,-1.83913125511026e-05,4.5722685172222555e-05
-1.1786475624830928e-05,-1.3464614312397316e-05,5.1224273192929104e-05
-2.5704444851726294e-05,-5.941192284808494e-06,5.74429432163015e-05
-3.413340891711414e-05,-3.513221997764049e-07,5.223755579208955e-05
-3.806234963121824e-05,-3.3079970762628363e-07,3.403174923732877e-05
-2.896733712987043e-05,-4.7923654165060725e-06,1.5853402146603912e-05
-8.99004407983739e-06,-8.457084732071962e-06,8.729006367502734e-06
6.331879831122933e-06,-7.962944437167607e-06,6.7332989601709414e-06
1.0517835107748397e-05,-7.047044618957443e-06,-3.2487068892805837e-06
1.094688650482567e-05,-8.280596375698224e-06,-2.2075477318139747e-05
1.0390180250396952e-05,-6.4398609538329765e-06,-3.6260131309973076e-05
1.1017205906682648e-05,7.690172196817002e-07,-3.767682574107312e-05
1.1600772268138826e-05,6.452679826907115e-06,-4.062817606609315e-05
6.707815373374615e-06,5.252783466858091e-06,-6.733746704412624e-05
4.07606557928375e-06,-3.046737617751205e-08,-0.00010719148122007027
9.19130070542451e-06,-3.7451395655807573e-06,-0.00012235641770530492
7.68596692068968e-06,-4.4438829718274064e-06,-9.889809007290751e-05
3.377549091965193e-06,-6.480420779553242e-06,-6.140561163192615e-05
7.940817340568174e-06,-6.624133220611839e-06,-2.8874335839645937e-05
1.4087414456298575e-05,-3.9604169614904094e-06,-1.3242653039924335e-05
1.5598221580148675e-05,-3.0287458230304765e-06,-1.3050487723376136e-05
1.4541235941578634e-05,-5.874233011127217e-06,-1.6224752471316606e-05
1.0500388270884287e-05,-7.2608031587151345e-06,-1.4692287550133187e-05
1.2416676327120513e-05,-3.317745267850114e-06,6.197476523084333e-07
1.847023486334365e-05,-2.6420838139529224e-07,2.988900632772129e-05
1.6271860658889636e-05,-1.0334834144032357e-07,6.299419328570366e-05
-4.844956720262417e-07,-1.163785327662481e-06,8.773103036219254e-05
-3.0140086892060935e-05,-2.107188038280583e-06,9.822528954828158e-05
-5.0317557906964794e-05,-2.6919417450699257e-06,0.00010041036148322746
-4.431920388014987e-05,-7.14039697413682e-06,0.00010409735841676593
-1.8923848983831704e-05,-1.5781795809743926e-05,0.0001104175389627926
7.0973337642499246e-06,-2.302480788785033e-05,0.00010861122427741066
2.7345171474735253e-05,-2.5973366064135917e-05,9.845159365795553e-05
3.832117363344878e-05,-2.632265750435181e-05,8.882277325028554e-05
3.720381937455386e-05,-2.649877205840312e-05,8.085636363830417e-05
2.849790507752914e-05,-2.6222818632959388e-05,6.990750989643857e-05
2.1902880689594895e-05,-2.5633438781369478e-05,5.471996701089665e-05
1.8494665710022673e-05,-2.4620265321573243e-05,4.206956145935692e-05
1.691103352641221e-05,-1.8806722437147982e-05,3.325607758597471e-05
1.2067868738085963e-05,-6.945954737602733e-06,1.927096127474215e-05
-1.0092002185047022e-06,6.11223140367656e-06,-5.804095962957945e-06
-1.1955843547184486e-05,1.4375700629898347e-05,-3.773425123654306e-05
-1.3458371540764347e-05,1.6555508409510367e-05,-6.22478110017255e-05
-6.28219004283892e-06,2.0413433958310634e-05,-6.978233432164416e-05
2.5737524538271828e-06,3.144997390336357e-05,-7.048678526189178e-05
1.748241629684344e-05,4.298399289837107e-05,-7.33762135496363e-05
2.2526861357619055e-05,4.2819967347895727e-05,-7.757553976261988e-05
8.053157216636464e-07,3.305658538010903e-05,-7.055418245727196e-05
-4.025733869639225e-05,2.2874079149914905e-05,-4.1636729292804375e-05
-8.048021118156612e-05,1.1692415682773571e-05,1.6717741573302192e-06
-8.398706995649263e-05,-8.035485166146827e-07,2.9043087124591693e-05
-5.938035610597581e-05,-5.581807727139676e-06,2.6544637876213528e-05
-2.832643258443568e-05,4.801673185284017e-06,8.938749260778422e-07
-3.47714717463532e-06,2.169125400541816e-05,-4.393951894599013e-05
1.3022800885664765e-05,3.158099571010098e-05,-7.876726158428937e-05
2.2510417693411e-05,2.5864919734885916e-05,-7.4957606557291e-05
2.6761441404232755e-05,9.723371476866305e-06,-4.306801929487847e-05
2.8714050131384283e-05,-4.68886855742312e-06,-9.631947250454687e-06
2.7162213882547803e-05,-1.1399960385460872e-05,1.5217446161841508e-05
2.770313403743785e-05,-1.1137049114040565e-05,3.676036430988461e-05
3.14099743263796e-05,-7.60338070904254e-06,5.9344743931433186e-05
3.8084897823864594e-05,-6.585870323760901e-06,7.920574716990814e-05
4.7571953473379835e-05,-7.707653821853455e-06,9.32224138523452e-05
5.382774179452099e-05,-7.33982687961543e-06,0.0001036662288242951
4.3744497816078365e-05,-6.801237304898677e-06,0.00010928289702860638
2.459420466038864e-05,-7.8515704444726e-06,0.00010529839346418157
9.411735845787916e-06,-9.240253348252736e-06,9.032134403241798e-05
1.0384276265540393e-06,-9.099057024286594e-06,7.171948527684435e-05
1.8819957858795533e-06,-6.450981800298905e-06,6.200331699801609e-05
1.2881538168585394e-05,-3.6849237403657753e-06,6.421330181183293e-05
2.4609405954834074e-05,-4.559553417493589e-06,6.968125671846792e-05
3.345102595631033e-05,-7.318318239413202e-06,6.7765278799925e-05
2.712604145926889e-05,-1.0931374163192231e-05,5.311285349307582e-05
1.1141650247736834e-05,-1.2590685400937218e-05,2.194943226641044e-05
1.6766632597864373e-06,-1.1766775969590526e-05,-1.648603029025253e-05
-5.729278200305998e-06,-6.6256557147426065e-06,-3.401837238925509e-05
-1.3713837688555941e-05,-2.7646658509183908e-06,-2.4092911189654842e-05
-1.3908111213822849e-05,-5.253677500149934e-06,-9.750617209647316e-06
-3.9638252928853035e-06,-1.01604364317609e-05,-1.4371325050888117e-05
2.940253352790023e-06,-1.3620096979138907e-05,-4.6394558012252674e-05
3.593559995351825e-06,-1.48352646647254e-05,-8.842529496178031e-05
-4.185331818007398e-06,-1.284637619392015e-05,-0.00011335442832205445
-1.7636248230701312e-05,-6.749969543307088e-06,-0.00010661035776138306
-2.7375286663300358e-05,-7.671480375393003e-07,-7.88899851613678e-05
-2.999516436830163e-05,5.389280431700172e-06,-4.991943933418952e-05
-3.0689458071719855e-05,1.0284789823344909e-05,-2.3083495761966333e-05
-3.340723196743056e-05,8.511441592418123e-06,2.705838369365665e-06
-4.545293631963432e-05,2.174434939661296e-06,2.0230880181770772e-05
-6.516489520436153e-05,-3.0159785637806635e-06,2.135751310561318e-05
-6.694241892546415e-05,-6.474112069554394e-06,9.974761269404553e-06
-2.9234231988084503e-05,-8.338463885593228e-06,6.8433650994847994e-06
3.217913399566896e-05,-8.271762453659903e-06,2.546223004173953e-05
7.049690611893311e-05,-7.273464689205866e-06,4.9548652896191925e-05
5.146227704244666e-05,-5.542703547689598e-06,6.26199398539029e-05
-3.461532287474256e-06,-4.091039500053739e-06,7.102086237864569e-05
-3.749385359697044e-05,-3.516388915159041e-06,8.555036765756086e-05
-3.622497752076015e-05,2.044710981863318e-06,0.00010666334128472954
-2.263784881506581e-05,9.655919711804017e-06,0.00011944772268179804
-8.652349606563803e-06,1.29269410535926e-05,0.00011956779781030491
-2.6125499061890878e-06,1.0931413271464407e-05,0.00011600586003623903
-5.79346942686243e-06,4.437447387317661e-06,9.485721966484562e-05
-6.468115316238254e-06,1.0895726632043079e-07,6.198985647642985e-05
-8.651208531773591e-07,-6.668668675047229e-07,4.0147544495994225e-05
8.976821845863014e-06,3.3438928426221537e-07,3.171182834194042e-05
1.8029302736977115e-05,1.467100787522213e-06,2.8907705200253986e-05
1.7837064660852775e-05,7.750590498289966e-07,2.620177110657096e-05
1.0591876161925029e-05,2.6373538730695145e-07,2.002526343858335e-05
2.8520016712718643e-06,-2.1475574385476648e-07,-9.196763244290196e-07
-3.3762134989956394e-06,-1.5223059790514526e-06,-2.5728495529619977e-05
-8.170089131454006e-06,-1.0896234243773506e-06,-4.031034040963277e-05
-5.2956697800254915e-06,2.584884441603208e-06,-4.8813337343744934e-05
5.651660558214644e-06,1.1004051884810906e-05,-5.83473956794478e-05
1.4935241779312491e-05,2.219263478764333e-05,-7.069071580190212e-05
1.6991569282254204e-05,3.260335506638512e-05,-8.181318116839975e-05
8.884852832125034e-06,4.196275767753832e-05,-8.014722698135301e-05
-9.357500857731793e-06,4.926362817059271e-05,-6.167879473650828e-05
-2.4550545276724733e-05,4.819858440896496e-05,-4.202780837658793e-05
-2.5417268261662684e-05,2.4638600734760985e-05,-3.740819374797866e-05
-1.903596603369806e-05,-2.8174365070299245e-05,-4.4894652091898024e-05
-1.0922986803052481e-05,-8.35303362691775e-05,-4.574944614432752e-05
1.7543271724207443e-06,-9.258044883608818e-05,-3.566563464119099e-05
1.4869660844851751e-05,-5.742660505347885e-05,-2.1455367459566332e-05
2.23066581384046e-05,-2.3325750589719974e-05,-5.540276106330566e-06
1.7772694263840094e-05,-1.1229412848479114e-05,1.5163903299253434e-05
1.6818495396364597e-06,-8.146784239215776e-06,4.358107253210619e-05
-3.004239033543854e-06,-1.1319361874484457e-06,6.708529690513387e-05
1.5148633792705368e-05,5.189899638935458e-06,7.622876728419214e-05
3.240664227632806e-05,4.473892659007106e-06,8.316553430631757e-05
3.231141090509482e-05,-3.3494166018499527e-07,0.00010138672223547474
1.7834341633715667e-05,-1.933796283992706e-06,0.00012556053115986288
4.746918875753181e-06,-2.006823024203186e-06,0.00014212969108484685
1.2331686775723938e-05,-1.7558558056407492e-06,0.00014348368858918548
2.538252556405496e-05,-4.8270912884618156e-06,0.00012886244803667068
2.6057532522827387e-05,-3.2313814699591603e-06,0.00010339192522224039
1.7706497601466253e-05,8.56606857269071e-06,7.537993951700628e-05
6.540036338265054e-06,2.3752001652610488e-05,5.650931052514352e-05
-8.213358341890853e-06,4.2244519136147574e-05,5.032704575569369e-05
-1.2640004570130259e-05,6.420745194191113e-05,5.6299577408935875e-05
-4.314112629799638e-06,7.980345253599808e-05,6.433365342672914e-05
2.4420876343356213e-06,7.762721361359581e-05,6.269352161325514e-05
-1.7079323697544169e-06,5.279757533571683e-05,4.107227869099006e-05
-1.91008293768391e-05,5.1579145292635076e-06,8.097052983657704e-08
-3.585284503060393e-05,-5.256689837551676e-05,-4.1120008972939104e-05
-3.40159640472848e-05,-9.839067206485197e-05,-6.431200745282695e-05
-1.3176104403100908e-05,-0.00011805873509729281,-6.911913806106895e-05
8.803469427220989e-06,-0.0001142315159086138,-6.801250856369734e-05
1.7542546629556455e-05,-9.781278640730307e-05,-7.380649913102388e-05
5.664761374646332e-06,-7.375407585641369e-05,-8.61122171045281e-05
-1.510964739281917e-05,-3.087655204581097e-05,-8.16632600617595e-05
-1.9555593098630197e-05,1.675038402026985e-05,-6.019910506438464e-05
-2.2561221157957334e-06,2.7481952201924287e-05,-4.160013486398384e-05
1.1589761015784461e-05,5.714770850318018e-06,-3.310077590867877e-05
9.381842573930044e-06,-6.465554179158062e-06,-1.8667898984858766e-05
-2.7748567390517564e-06,3.459840399955283e-06,1.9585990230552852e-05
-1.4993315744504798e-05,1.9086606698692776e-05,4.3431045924080536e-05
-1.2949864867550787e-05,2.5358058337587863e-05,1.5700470612500794e-05
-4.292296580388211e-06,2.22875241888687e-05,-3.486310379230417e-05
-9.59111457632389e-06,2.071318158414215e-05,-4.6060791646596044e-05
3.3499870824016398e-06,2.196969580836594e-05,2.1021087377448566e-06
3.9425787690561265e-05,1.6007659723982215e-05,6.735008355462924e-05
5.5513060942757875e-05,6.051542186469305e-06,0.00011217208520974964
4.5008608140051365e-05,-9.518266210761794e-07,0.00012666014663409442
2.4805742214084603e-05,-2.888785047616693e-06,0.00012783048441633582
8.056308615778107e-06,-3.0021631118870573e-06,0.00012646247341763228
7.030089363979641e-06,-3.908304734068224e-06,0.0001091950325644575
1.901480572996661e-05,-6.1083610489731655e-06,7.407209341181442e-05
3.0054099624976516e-05,-7.328129868255928e-06,4.705796163761988e-05
3.3399759558960795e-05,-5.690624675480649e-06,3.432756784604862e-05
1.931277620315086e-05,-4.973721843271051e-06,2.702541860344354e-05
-6.173233032313874e-06,-5.573556791205192e-06,2.090892485284712e-05
-1.6997382772387937e-05,-6.045923328201752e-06,1.5204074770736042e-05
-7.651054829693749e-07,-6.8035078584216535e-06,1.1141423783556093e-05
1.7773503714124672e-05,-9.09681330085732e-06,6.6057450567313936e-06
1.80744373210473e-05,-1.0801047210406978e-05,-1.6832173059810884e-06
4.173530214757193e-06,-1.0498853043827694e-05,-1.6317229892592877e-05
-1.4826555343461223e-05,-7.725932846369687e-06,-3.46574597642757e-05
-2.6578263714327477e-05,-3.7852410059713293e-06,-4.920401988783851e-05
-2.2951844584895298e-05,1.0044608416137635e-06,-6.0621077864198014e-05
-1.4960842236177996e-05,3.043404376512626e-06,-7.642523269169033e-05
-2.4497569484083215e-06,4.246684056852246e-06,-9.378461254527792e-05
1.2860230526712257e-05,1.1933386304008309e-05,-0.0001067152843461372
2.1994186681695282e-05,2.0428527932381257e-05,-0.00010657672100933269
3.5703968023881316e-05,2.2731668650521897e-05,-9.134005813393742e-05
4.37270246038679e-05,2.027854679909069e-05,-6.216803012648597e-05
2.346532892261166e-05,1.6181682440219447e-05,-3.726602881215513e-05
-2.498675939932582e-06,1.0757892596302554e-05,-2.4540344384149648e-05
-1.4565850506187417e-05,-3.842581463686656e-06,-1.4336403182824142e-05
-2.2477152015198953e-05,-2.3709833840257488e-05,-2.8174722501717042e-06
-3.0236065867939033e-05,-3.994480721303262e-05,9.562456398271024e-06
-3.839423879981041e-05,-4.261639332980849e-05,3.040986484847963e-05
-4.046613321406767e-05,-2.9169084882596508e-05,6.634092278545722e-05
-2.634909651533235e-05,-5.390262231230736e-06,0.00010017662134487182
-4.979197001375724e-06,2.1597878003376536e-05,0.00010356436541769654
1.9612091364251683e-06,4.249975972925313e-05,8.293036080431193e-05
-4.864696165896021e-06,4.973828617949039e-05,8.106358291115612e-05
-9.474039870838169e-06,5.0737759011099115e-05,0.00011168814671691507
-8.964269909483846e-06,5.5088217777665704e-05,0.00014711046242155135
-5.858375516254455e-06,5.591465378529392e-05,0.00015858886763453484
2.7980131562799215e-06,4.379127494757995e-05,0.0001384091447107494
9.257323654310312e-06,2.2728314434061758e-05,9.83987920335494e-05
4.165911377640441e-06,6.4378264141851105e-06,5.86559071962256e-05
-8.304270522785373e-06,-9.227812256540346e-07,3.536583244567737e-05
-1.5668392734369263e-05,-1.7050485894287704e-06,3.198424383299425e-05
-9.8102691481472e-07,-5.590553882939275e-06,2.9738370358245447e-05
3.1081613997230306e-05,-1.2549595339805819e-05,1.819289172999561e-05
4.5664444769499823e-05,-1.536724630568642e-05,6.0312627283565234e-06
3.005020334967412e-05,-1.300431540585123e-05,4.384969258808269e-07
6.767204467905685e-06,-6.521466730191605e-06,-1.698093728919048e-05
-2.1833109258295735e-06,1.6240110198850743e-06,-5.122938091517426e-05
4.440218617673963e-06,4.2667957131925505e-06,-7.21785327186808e-05
1.0100368854182307e-05,7.24995857126487e-07,-7.524935790570453e-05
5.547305136133218e-06,-3.8947773646214046e-06,-7.725038449279964e-05
1.0947459259114112e-06,-3.577209554350702e-06,-8.279471512651071e-05
1.533878162263136e-07,-4.639518010662869e-06,-8.954231452662498e-05
-4.741641077998793e-06,-1.0702447070798371e-05,-9.382356074638665e-05
-1.5599925973219797e-05,-1.3418547496257816e-05,-9.11431125132367e-05
-2.8430704333004542e-05,-9.323084668722004e-06,-8.306805102620274e-05
-3.807769462582655e-05,-3.6767319215869065e-06,-6.726646824972704e-05
-3.127232048427686e-05,-5.231366912994417e-07,-3.9415266655851156e-05
-6.6741163209371734e-06,1.2167743079771753e-06,-2.271402308906545e-06
1.8763550542644225e-05,1.7718748495099135e-06,2.7854419386130758e-05
3.4242810215801e-05,9.561173328620498e-07,3.5022254451178014e-05
2.7660646082949825e-05,-3.096025693594129e-06,2.4880546334316023e-05
-1.1561229484868818e-06,-8.872383659763727e-06,1.89402107935166e-05
-2.663531449798029e-05,-1.3653851056005806e-05,3.0545743356924504e-05
-3.106004078290425e-05,-1.616902773093898e-05,6.159001350170001e-05
-2.6235646146233194e-05,-1.8034268578048795e-05,9.952435357263312e-05
-2.505801967345178e-05,-2.048568603640888e-05,0.00011098849063273519
-2.5967949113692157e-05,-2.353117633902002e-05,8.415431511821225e-05
-2.1939978978480212e-05,-2.3917824364616536e-05,4.324339533923194e-05
8.468339729006402e-06,-2.047909947577864e-05,2.885344838432502e-05
6.047685747034848e-05,-1.7495953215984628e-05,6.661091174464673e-05
7.944976823637262e-05,-1.4039093002793379e-05,0.00012463053280953318
5.7814693718682975e-05,5.093379513709806e-07,0.00013692621723748744
3.093969280598685e-05,2.3152022549766116e-05,8.156054536812007e-05
1.2234503628860693e-05,3.817149990936741e-05,1.2752805560012348e-05
2.640923412400298e-06,4.872702993452549e-05,-1.4611916412832215e-05
-5.509700145012175e-07,5.712918209610507e-05,-6.123550974734826e-06
-4.02204796046135e-06,4.388737943372689e-05,3.509009502522531e-06
1.7057384411600651e-06,-3.959292826039018e-06,7.410300781884871e-07
1.2265550140000414e-05,-6.75112460157834e-05,-8.216671631089412e-06
1.2718991456495132e-05,-9.594930452294648e-05,-1.78620593942469e-05
5.680175945599331e-06,-7.201409607660025e-05,-2.3866497940616682e-05
-6.249989382922649e-06,-3.2381165510741994e-05,-3.1846004276303574e-05
-1.3609453162644058e-05,-8.076422091107816e-06,-4.124183760723099e-05
-1.1452781109255739e-05,-3.891874257533345e-06,-5.351354775484651e-05
-4.948083187628072e-06,-9.288110049965326e-06,-6.38027922832407e-05
-5.8218965932610445e-06,-1.3932321053289343e-05,-6.613950245082378e-05
-1.2263990356586874e-05,-1.5574925782857463e-05,-6.254090840229765e-05
-2.000787753786426e-05,-1.5015019016573206e-05,-5.9543850511545315e-05
-2.365307773288805e-05,-1.1938495845242869e-05,-5.4394131439039484e-05
-1.7983671568799764e-05,-5.888821760891005e-06,-4.0706985600991175e-05
-7.960823495523073e-06,4.2233895669596677e-07,-2.385047082498204e-05
-4.369330781628378e-06,1.7487318473285995e-06,-6.616290647798451e-06
-5.493084699992323e-06,-8.944319347392593e-07,1.129844895331189e-05
-8.545987384422915e-07,-3.035986537724966e-06,2.7425834559835494e-05
6.745526206941577e-06,-2.384004801569972e-06,4.01036195398774e-05
1.7778957044356503e-05,-1.1923976899197442e-06,5.601831435342319e-05
2.907823545683641e-05,-5.693717639587703e-07,7.620708493050188e-05
2.7133883122587577e-05,1.6124956800922519e-06,8.70742806000635e-05
1.4750668924534693e-05,3.2992677461152198e-06,8.527847239747643e-05
4.610482847056119e-06,-4.394876640390066e-08,9.214588499162346e-05
-3.946955530409468e-06,-5.345438239601208e-06,0.00010732135706348345
-8.803513082966674e-06,-4.24265408582869e-06,0.00012465791951399297
-1.2068110663676634e-05,-8.147696917149005e-07,0.00013403696357272565
-1.423297817382263e-05,-1.52696259192453e-06,0.00012699697981588542
-3.3303374493698357e-06,-4.74894477520138e-06,0.00010849739192053676
1.3317094271769747e-05,-6.293179012573091e-06,8.721226186025888e-05
1.8634806110640056e-05,-5.660570877807913e-06,6.976522854529321e-05
1.0770606422738638e-05,-3.973454568040324e-06,5.896488801226951e-05
-7.037183991087659e-08,-2.3283685095520923e-06,5.842940299771726e-05
4.736847074582329e-07,2.6917930995296047e-07,5.178945139050484e-05
1.6477450117236003e-05,4.720717697637156e-06,3.173396544298157e-05
3.217463381588459e-05,8.239040653279517e-06,1.2184378647361882e-05
2.963771839858964e-05,1.0586316420813091e-05,-1.249460865437868e-06
1.469905510020908e-05,1.0190584362135269e-05,-1.65241817740025e-05
4.041640977447969e-07,7.607389761687955e-06,-3.4788597986334935e-05
-8.428261935478076e-06,4.26358428740059e-06,-5.1506725867511705e-05
-7.966975317685865e-06,3.891006144840503e-06,-6.52144371997565e-05
1.08823928712809e-06,6.8564099819923285e-06,-7.554586045444012e-05
7.233883025037358e-06,8.158544915204402e-06,-7.553686009487137e-05
4.804738182428991e-06,6.295377716014627e-06,-5.4129137424752116e-05
-5.3344210755312815e-06,5.5102987062127795e-06,-1.6331832739524543e-05
-2.3878334104665555e-05,6.344219855236588e-06,1.7553797079017386e-05
-3.5498847864801064e-05,6.2728390730626415e-06,2.5446237486903556e-05
-2.5596533305360936e-05,5.369237896957202e-06,-1.8838292703549087e-08
-8.113424883049447e-06,4.393670678837225e-06,-3.9086080505512655e-05
-8.470476586808218e-07,4.3446111703815404e-06,-6.56341653666459e-05
-5.724048151023453e-06,4.662144874600926e-06,-6.952800322324038e-05
-3.6279182040743763e-06,3.907519840140594e-06,-5.7157318224199116e-05
1.0821728210430592e-05,2.4796454454190098e-06,-2.1944766558590345e-05
1.592431181052234e-05,3.1071301691554254e-06,2.924492218880914e-05
1.0474223017808981e-05,3.699381750266184e-06,6.567274976987392e-05
8.142174920067191e-06,3.6414432997844415e-06,7.809665839886293e-05
6.613818641199032e-06,1.5882395132393867e-07,6.931911775609478e-05
9.704153853817843e-06,-4.811457074538339e-06,6.053885226720013e-05
2.067601053568069e-05,-5.568834694713587e-06,7.262663712026551e-05
2.2184865883900784e-05,-3.4783518003678182e-06,9.96552116703242e-05
8.900742614059709e-06,-2.615227913338458e-06,0.0001146435461123474
-6.904428573761834e-06,-5.35273920831969e-06,0.00010847787780221552
-1.5286072084563784e-05,-8.921856533561368e-06,9.303151455242187e-05
-1.6054336811066605e-05,-1.3798146028420888e-05,7.943769014673308e-05
-1.0158443728869315e-05,-1.8445100067765452e-05,6.68742140987888e-05
-5.941249582974706e-06,-2.110191599058453e-05,4.903418812318705e-05
-6.88266027282225e-06,-2.201827555836644e-05,3.276210554759018e-05
-5.272711860015988e-06,-2.184067852795124e-05,2.5372017262270674e-05
-1.7472325453127269e-06,-2.2003503545420244e-05,1.845920633058995e-05
-3.184412889822852e-06,-2.177241549361497e-05,-5.261780188448029e-06
-5.0311120958213e-07,-1.6524341845070012e-05,-4.358055230113678e-05
1.6664991562720388e-05,-1.0702201507228892e-06,-7.663819997105747e-05
3.147708412143402e-05,1.6757427147240378e-05,-9.009577479446307e-05
3.0283881642390043e-05,2.236890395579394e-05,-8.415939373662695e-05
2.0981586203561164e-05,2.016976759477984e-05,-7.108510908437893e-05
1.1473928680061363e-05,2.5909663236234337e-05,-7.042942161206156e-05
5.1117053772031795e-06,3.8579764805035666e-05,-8.11637073638849e-05
-1.0943101642624242e-06,4.652475399780087e-05,-8.545830496586859e-05
-1.1864001862704754e-05,3.959051173296757e-05,-7.509636634495109e-05
-1.8832055502571166e-05,2.4622022465337068e-05,-5.4239557357504964e-05
-2.1031853975728154e-05,1.262284604308661e-05,-2.8355316317174584e-05
-1.8749095033854246e-05,5.950101240159711e-06,-1.5284927030734252e-06
-3.3528961012052605e-06,6.444333394028945e-06,2.183325523219537e-05
9.88663305179216e-06,6.75349974699202e-06,2.210804814239964e-05
9.540146493236534e-06,1.7367206055496354e-06,3.867654072564619e-07
4.058472313772654e-06,-5.1386614359216765e-06,-9.161725756712258e-06
-1.699351855677378e-06,-9.758519809111021e-06,1.5107239960343577e-05
-7.929455932753626e-06,-1.234871433553053e-05,5.577876800089143e-05
-4.167597580817528e-06,-1.4674029443995096e-05,9.005823085317388e-05
6.4249611568811815e-06,-1.3209061762609053e-05,0.00011663330224109814
3.225488626412698e-06,-6.830161964899162e-06,0.00012971615069545805
-1.6862382835824974e-05,-1.5666337276343256e-06,0.00011355701280990615
-4.0191214793594554e-05,-1.0950116120511666e-06,7.777754217386246e-05
-4.913843440590426e-05,-3.5880430004908703e-06,5.979555135127157e-05
-4.160701791988686e-05,-6.273086000874173e-06,5.913082350161858e-05
-2.6312180125387385e-05,-6.695697720715543e-06,4.980306766810827e-05
-1.3808746189170051e-05,-6.779096111131366e-06,3.650972212199122e-05
-8.623986104794312e-06,-1.1287383131275419e-05,3.1299285183195025e-05
-1.0822623153217137e-05,-1.7439620933146216e-05,1.5950046872603707e-05
-1.0960143299598712e-05,-1.5206591342575848e-05,-5.796765435661655e-06
6.0354923334671184e-06,-5.830000645801192e-06,-1.0003454008256085e-05
3.707979340106249e-05,-2.0702616438939003e-06,-8.1958637565549e-07
5.1229424570919946e-05,-6.616713562834775e-06,-5.961898750683758e-06
3.712240868480876e-05,-8.666011126479134e-06,-3.1056959414854646e-05
1.4709817151015159e-05,-4.430082299222704e-06,-5.232055264059454e-05
2.583111154308426e-06,-3.6842429835814983e-06,-5.537975812330842e-05
6.725956609443529e-06,-6.181040134833893e-06,-5.517873796634376e-05
1.0523399396333843e-05,-6.120361831563059e-06,-7.354461558861658e-05
4.189520041109063e-06,-4.787933903571684e-06,-9.809555922402069e-05
2.4297287382069044e-06,-3.786355591728352e-06,-0.00010746213229140267
7.203247605502838e-06,-2.615825451357523e-06,-9.862258593784645e-05
6.8441336225077976e-06,5.565275387198199e-06,-7.946713594719768e-05
8.789916137175169e-07,1.894061097118538e-05,-5.4797055781818926e-05
-7.5642542469722684e-06,2.799869980663061e-05,-3.234870018786751e-05
-1.3913987459091004e-05,2.9158058168832213e-05,-1.714056998025626e-05
-8.95639186637709e-06,2.7751852030633017e-05,-8.347090442839544e-06
3.728736601260607e-06,2.9869239369872957e-05,-2.426280161671457e-06
1.2056457308062818e-05,3.183152148267254e-05,7.832029950805008e-06
1.5243179404933471e-05,2.5166602426907048e-05,2.7370335374143906e-05
9.588567991158925e-06,1.8834336970030563e-06,5.8796500525204465e-05
-4.19338675783365e-06,-3.0719478672835976e-05,8.837666973704472e-05
-1.0164180821448099e-05,-5.3136311180423945e-05,9.78275784291327e-05
-4.627944235835457e-06,-6.222262163646519e-05,9.540301834931597e-05
-5.655079348798608e-06,-7.997802458703518e-05,0.00010768957872642204
-1.457993403164437e-05,-0.0001124875561799854,0.00013268174370750785
-1.8824242943082936e-05,-0.00013085907266940922,0.0001400141918566078
-2.3598599000251852e-05,-0.00010598769586067647,0.00012976827565580606
-2.7876203603227623e-05,-4.4595024519367144e-05,0.000131506662000902
-2.170721381844487e-05,2.077704448311124e-05,0.0001476393372286111
-8.275145773950499e-06,6.251130253076553e-05,0.00015596969751641154
9.896745723381173e-06,6.736390059813857e-05,0.0001368783414363861
2.9082992114126682e-05,4.154644193476997e-05,8.234357665060088e-05
3.344300057506189e-05,1.4813634152233135e-05,1.2998029887967277e-05
2.9103401175234467e-05,1.1151965736644343e-05,-2.0579844203894027e-05
2.4662655050633475e-05,2.407453030173201e-05,1.4126155747362645e-06
1.4423746506508905e-05,3.3022326533682644e-05,3.7321147829061374e-05
6.365205535985297e-06,2.7595915526035242e-05,3.712916077347472e-05
-3.7446620808623265e-06,1.75732475327095e-05,4.332246135163587e-06
-1.2126954061386641e-05,1.0534152352192905e-05,-3.21278530464042e-05
-1.3246721209725365e-05,1.0674710210878402e-05,-5.942169082118198e-05
-1.2347669326118194e-05,1.6895968656172045e-05,-7.162358815548941e-05
-7.023779289738741e-06,2.347717781958636e-05,-7.59139220463112e-05
1.199772123072762e-05,2.8819782528444193e-05,-8.006762800505385e-05
3.100780304521322e-05,3.40846563631203e-05,-8.049439929891378e-05
2.5101538994931616e-05,3.953181658289395e-05,-6.966244836803526e-05
-3.2468349218106596e-06,3.919177470379509e-05,-5.866253559361212e-05
-3.216446202713996e-05,2.373403731326107e-05,-5.477097147377208e-05
-4.1589657485019416e-05,-1.1780723070842214e-05,-5.0200545956613496e-05
-2.4544535335735418e-05,-5.020695607527159e-05,-4.009353870060295e-05
6.361457963066641e-06,-5.623650940833613e-05,-3.0188452001311816e-05
1.831596455303952e-05,-2.3031037926557474e-05,-2.7529122235137038e-05
7.520103508795728e-07,1.3946691069577355e-05,-2.4875447707017884e-05
-2.541047979320865e-05,2.6479563530301675e-05,-6.095041953813052e-06
-3.3628613891778514e-05,1.682320908003021e-05,2.460585892549716e-05
-9.636433787818532e-06,-1.7786037460609805e-06,4.772122701979242e-05
2.9666780392290093e-05,-2.1765394194517285e-05,6.529040547320619e-05
4.4212083594175056e-05,-3.874336107401177e-05,8.78177015692927e-05
3.0357630748767406e-05,-4.0348149923374876e-05,0.00010865947842830792
1.7227635908056982e-05,-1.999986488954164e-05,0.00012622257054317743
1.5907553461147472e-05,-2.082120317936642e-06,0.00013264793960843235
1.8658209228306077e-05,1.4173203908285359e-06,0.00012054653780069202
1.4509144421026576e-05,1.9581073047447717e-06,0.00010804182238643989
5.338173650670797e-06,3.124919771835266e-07,0.00010227743769064546
8.561814865970518e-06,-6.6221227825735696e-06,9.994657739298418e-05
1.3512225450540427e-05,-1.087141026800964e-05,9.228820272255689e-05
5.5797067943785805e-06,-5.92204014537856e-06,7.676398672629148e-05
-9.010306712298188e-06,-1.1425412367316312e-06,5.4952721256995574e-05
-1.6162264728336595e-05,-1.9345241071277997e-06,3.418200140004046e-05
-1.5928755601635203e-05,-3.99144300899934e-06,2.000287531700451e-05
-5.821927970828256e-06,-3.6347394143376732e-06,7.008297870925162e-06
1.773921940184664e-05,-8.054809654822748e-07,-1.2590095138875768e-05
3.91045214200858e-05,1.1104207260359544e-06,-3.402149741305038e-05
4.274137245374732e-05,-3.2655555060046026e-06,-5.1691833505174145e-05
2.603845132398419e-05,-1.1190959412488155e-05,-7.115581684047356e-05
4.864546099270228e-06,-1.7312007912551053e-05,-9.335892536910251e-05
-3.373252411620342e-06,-2.0608493286999874e-05,-0.00010820004536071792
3.7840150071133394e-06,-2.3073873308021575e-05,-0.00010418636520626023
6.738544016116066e-06,-2.6154215447604656e-05,-8.660854655317962e-05
2.0920307974847674e-07,-3.0119970688247122e-05,-6.945717905182391e-05
-6.579757609870285e-06,-2.9951721444376744e-05,-5.598735879175365e-05
-1.1860697668453213e-05,-2.265534203615971e-05,-4.1501258237985894e-05
-8.948083632276393e-06,-1.447316026315093e-05,-2.666042018972803e-05
2.8916927021782612e-06,-5.52038954992895e-06,-1.0394019227533136e-05
1.8088364868162898e-06,1.4695045138068963e-05,5.372052328311838e-06
-1.1853146133944392e-05,4.789507147506811e-05,9.729015800985508e-06
-1.6434281860711053e-05,7.718989218119532e-05,7.933404958748724e-06
-3.0669042416775483e-07,7.867891690693796e-05,3.033507709915284e-05
2.097020660585258e-05,5.309435073286295e-05,6.38099227217026e-05
2.4166807634173892e-05,2.4525839762645774e-05,7.855321746319532e-05
8.951133168011438e-06,7.307286523428047e-06,8.66868722368963e-05
-2.0613372271327535e-06,3.657254865174764e-06,0.00010223402932751924
-6.189661689859349e-07,3.5874058994522784e-06,0.00011659033771138638
2.705011411308078e-06,1.7784416286303895e-06,0.00011374313908163458
7.358112839028763e-07,-1.8987302610184997e-06,9.939333540387452e-05
-6.804155418649316e-06,-4.57476380688604e-06,8.816261833999306e-05
-8.827591955196112e-06,-5.7262732298113406e-06,7.756183185847476e-05
3.7747431633761153e-06,-6.930503332114313e-06,6.233852764125913e-05
2.1042324078734964e-05,-7.697659384575672e-06,4.44481338490732e-05
2.5936989914043806e-05,-5.522804258362157e-06,3.155685044475831e-05
1.955833977262955e-05,-1.1518608289406984e-06,2.7027635951526463e-05
4.966210781276459e-06,1.61051232794307e-07,2.688921995286364e-05
-1.3838426639267709e-05,-1.8110422388417646e-06,2.23789902520366e-05
-2.5030376491486095e-05,-4.144817921769572e-06,6.820410817454103e-06
-2.0675039195339195e-05,-4.847653599426849e-06,-1.6113006495288573e-05
-8.304846232931595e-06,-3.6130734315520385e-06,-3.3790165616665035e-05
8.307761731884966e-07,2.2434057882492198e-06,-3.990600453107618e-05
1.0503396197236725e-06,1.1760074812627863e-05,-4.466544487513602e-05
-9.299719749833457e-06,1.750614319462329e-05,-5.653830157825723e-05
-1.9973182133981027e-05,1.3627283806272317e-05,-6.690710142720491e-05
-1.6655085346428677e-05,5.346007128537167e-06,-6.698653305647895e-05
-1.1204057955183089e-05,1.268634832740645e-06,-6.387505709426478e-05
-1.2847835932916496e-05,2.336532133995206e-06,-6.55765543342568e-05
-1.616484769328963e-05,3.515926664476865e-06,-5.684012285200879e-05
-1.7803700757212937e-05,4.388792149256915e-06,-2.4449815100524575e-05
-1.453722779842792e-05,5.390445949160494e-06,1.1505682778079063e-05
-1.519599391031079e-05,7.398316938633798e-06,2.4924514946178533e-05
-1.931283259182237e-05,5.8269429246138316e-06,1.0302429473085795e-05
-1.6888920072233304e-05,5.380946959121502e-07,-1.172930933535099e-05
-1.2435082680894993e-05,-7.228851245599799e-06,-2.3957969460752793e-05
-2.680865463844384e-06,-1.6446447261841968e-05,-4.007616553280968e-06
1.1730506230378523e-05,-1.9813696781056933e-05,4.5678341848542914e-05
1.2267934835108463e-05,-1.626415723876562e-05,9.652834705775604e-05
-3.2034922696766444e-06,-1.2368626812531147e-05,0.0001226452150149271
-1.072873692464782e-05,-1.4195285075402353e-05,0.00011528471077326685
-5.17233593200217e-06,-1.82384410436498e-05,0.00010702065628720447
-3.165200496368925e-06,-1.9662174963741563e-05,0.0001135424681706354
-4.417113814270124e-06,-2.0015118934679776e-05,0.00010670550545910373
-6.4078385548782535e-06,-2.016653525060974e-05,8.141920261550695e-05
-1.0211706467089243e-05,-1.6607571524218656e-05,7.529588765464723e-05
-9.433831110072788e-06,-9.319624041381758e-06,9.554427379043773e-05
2.212956815128564e-06,1.0544184760874487e-06,0.00010628782911226153
2.3916674763313495e-05,1.5842457287362777e-05,7.800847379257903e-05
5.4216765420278534e-05,2.810627302096691e-05,2.341172512387857e-05
6.964896601857617e-05,2.8733697035931982e-05,-2.0767884052474983e-05
5.0166308938059956e-05,1.8540724340709858e-05,-4.874409205513075e-05
2.7185369617654942e-05,2.413293941572192e-06,-7.5195224781055e-05
2.645308995852247e-05,-1.2299361515033524e-05,-9.323722042609006e-05
2.5485122023383155e-05,-2.5958161131711677e-05,-9.451359073864296e-05
1.4929106328054331e-05,-4.540771260508336e-05,-8.763834921410307e-05
1.911335175464046e-06,-6.791897612856701e-05,-8.122166764223948e-05
-1.0062688488687854e-05,-6.806648889323696e-05,-7.532571908086538e-05
-6.192775344970869e-06,-4.627585440175608e-05,-7.120240479707718e-05
7.919605195638724e-06,-2.6794918085215613e-05,-7.151161844376475e-05
1.1387545782781672e-05,-1.6647922166157514e-05,-7.669111073482782e-05
1.0712231414800044e-05,-1.5539171727141365e-05,-7.503350207116455e-05
1.1835686564154457e-05,-1.4705157809657976e-05,-6.274376210058108e-05
8.978377991297748e-06,-1.143479676102288e-05,-5.4348107369150966e-05
3.2422549338662066e-06,-4.871878445555922e-06,-5.017304283683188e-05
-1.1055776667490136e-05,3.133036898361752e-06,-3.7334204535000026e-05
-2.533485894673504e-05,9.198593033943325e-06,-1.849798900366295e-05
-2.4338989533134736e-05,1.4318553439807147e-05,-2.253340426250361e-06
-1.4281797120929696e-05,2.4061457224888727e-05,1.608009188203141e-05
-6.842644779680995e-06,3.585161903174594e-05,4.392136906972155e-05
-3.358778712936328e-06,3.9188667869893834e-05,7.309515058295801e-05
-5.927483925916022e-06,2.882738408516161e-05,9.351572953164577e-05
-1.3610499081551097e-05,1.2547552614705637e-05,0.00010774284601211548
-1.5019744751043618e-05,3.997728981630644e-06,0.00012344006972853094
-9.08952370082261e-06,5.075598892290145e-06,0.000143996745464392
-9.059295734914485e-06,8.412564056925476e-06,0.00016447753296233714
-1.3398575902101584e-05,7.935713256301824e-06,0.0001721193257253617
-1.2080962733307388e-05,4.596217877406161e-06,0.00015334294585045427
-1.093575428967597e-05,7.902299330453388e-07,0.00011818691564258188
-7.587737854919396e-06,-2.5841495698841754e-06,9.32719703996554e-05
2.199002437919262e-06,-4.329936928115785e-06,8.539933332940564e-05
7.120571353880223e-06,-2.7986532131762942e-06,7.960952643770725e-05
1.1946468703172286e-07,1.1567431101866532e-06,6.641429354203865e-05
-1.4591479157388676e-05,3.267540932938573e-06,4.905697642243467e-05
-2.3430908186128363e-05,1.989733391383197e-06,3.9358103094855323e-05
-1.058493035088759e-05,2.8604208637261763e-06,3.1406074413098395e-05
1.2062785572197754e-05,2.5829547212197213e-06,4.711697783932323e-06
2.3036285710986704e-05,2.7064045298175188e-06,-3.265928535256535e-05
2.7365907953935675e-05,2.7293472157907672e-06,-6.142549682408571e-05
2.8527203539852053e-05,1.0291024636899238e-06,-7.971216109581292e-05
2.3347680325969122e-05,3.0819480798527366e-06,-8.747961692279205e-05
9.422476978215855e-06,7.729447133897338e-06,-9.229638817487285e-05
-1.1976840141869616e-05,1.081969548977213e-05,-9.366455196868628e-05
-3.051402381970547e-05,1.0093441233038902e-05,-9.253959433408454e-05
-3.099973400821909e-05,6.335830221360084e-06,-9.046828199643642e-05
-1.1580605132621713e-05,1.545825739412976e-06,-8.571119542466477e-05
1.2633871847356204e-05,-3.0075393624429125e-06,-7.780650048516691e-05
2.8515989470179193e-05,-6.742420737282373e-06,-6.639843195443973e-05
2.9593027647933923e-05,-6.539690275531029e-06,-4.9731559556676075e-05
1.6543297533644363e-05,-4.454501322470605e-06,-3.059633672819473e-05
1.6988929019134957e-06,-3.3195210562553257e-06,-1.4409760296985041e-05
-4.986688509234227e-06,-2.7766111543314764e-06,8.626536327938084e-06
-1.0899338121816982e-05,-3.3752471608750056e-06,4.7071331209735945e-05
-2.2034037101548165e-05,-6.166865659906762e-06,9.194664016831666e-05
-3.654595639090985e-05,-7.98948804003885e-06,0.00012157526361988857
-4.637503661797382e-05,-5.862872512807371e-06,0.00012278924987185746
-3.3346823329338804e-05,4.884592996745596e-08,0.0001034077286021784
1.100430017686449e-05,3.6185983844916336e-06,9.77779200184159e-05
5.4214862757362425e-05,-2.5298678707486033e-08,0.00013203136040829122
5.670697282766923e-05,-7.460750566679053e-06,0.00017049718007910997
4.212318526697345e-05,-1.1151067155878991e-05,0.00014086841838434339
3.600290438043885e-05,-8.527488716936205e-06,6.570891855517402e-05
2.416130701021757e-05,1.802447286536335e-06,3.1897750432108296e-06
3.761008201763616e-06,1.4981828826421406e-05,-1.8825454390025698e-05
-1.7398389900336042e-05,1.5541674656560645e-05,1.043048996507423e-05
-2.1736508642788976e-05,2.4254775325971423e-06,5.2707564464071766e-05
-1.0192890840698965e-05,-9.45601368584903e-06,5.905452053411864e-05
1.8187058230978437e-05,-1.3590641174232587e-05,1.6488895198563114e-05
5.6390643294434994e-05,-1.5752550098113716e-05,-3.0204329959815368e-05
6.902775930939242e-05,-1.6072317521320656e-05,-5.0473117880756035e-05
4.71121929876972e-05,-1.5201311725832056e-05,-5.20798348588869e-05
1.8208565961685963e-05,-1.3250441043055616e-05,-4.6858764108037576e-05
-6.183487357702688e-07,-9.459414286538959e-06,-4.026612805319019e-05
-1.057049030350754e-05,-3.5104928883811226e-06,-3.748406015802175e-05
-1.2284717740840279e-05,2.098438017128501e-06,-4.2871732148341835e-05
-1.2569644241011702e-05,2.896049409173429e-06,-5.473794226418249e-05
-1.4491531146632042e-05,4.098473709746031e-06,-7.061195356072858e-05
-1.5357285519712605e-05,1.520655132480897e-05,-8.515401714248583e-05
-1.56086480274098e-05,3.9312391891144216e-05,-8.669716044096276e-05
-1.919253008964006e-05,6.716037023579702e-05,-6.904570909682661e-05
-1.7696891518426128e-05,8.099116530502215e-05,-4.116337368031964e-05
-1.012526081467513e-05,6.916873098816723e-05,-1.3960148862679489e-05
-6.200437837833306e-06,3.8738355215173215e-05,-4.699465534940828e-06
-6.6810775933845434e-06,-1.1633635949692689e-05,-1.8540775272413157e-05
-1.3431515071715694e-05,-9.234723256668076e-05,-2.615917765069753e-05
-3.0951247026678175e-05,-0.00016979800420813262,-1.0084972018375993e-05
-4.548664583126083e-05,-0.00017614159150980413,1.9581584638217464e-05
-4.4696182158077136e-05,-0.00010457291500642896,6.170985579956323e-05
-2.125031460309401e-05,-3.058341462747194e-05,9.741727990331128e-05
1.7834296158980578e-05,1.5304351109080017e-05,0.00010665456647984684
3.026329977728892e-05,4.88037258037366e-05,0.00010050320270238444
1.192355284729274e-05,5.744824738940224e-05,0.00010694110824260861
4.567443284031469e-06,3.884633770212531e-05,0.00013513583689928055
9.270584087062161e-06,1.3387551007326692e-05,0.00016503229562658817
1.1718186215148307e-05,6.427868584069074e-07,0.00017640450096223503
1.0567343451839406e-05,-1.483082428421767e-06,0.00014698467566631734
7.053144599922234e-06,-3.6013193494000006e-06,8.000074740266427e-05
1.0520845535211265e-05,-5.190617685002508e-06,1.8458302292856388e-05
2.6425474061397836e-05,1.2606843711182592e-06,-1.1329334483889397e-06
4.300349610275589e-05,7.996607564564329e-06,1.5119688214326743e-05
4.183663986623287e-05,8.217781214625575e-06,3.4701286494964734e-05
2.76619666692568e-05,4.787085799762281e-06,3.4628934372449294e-05
9.114320164371748e-06,4.189967057754984e-07,1.2446309483493678e-05
-6.902001587150153e-06,-4.041809916088823e-06,-2.0246890926500782e-05
-1.1415782864787616e-05,-9.925327503879089e-06,-4.74015723739285e-05
-4.0201239244197495e-06,-1.9028757378691807e-05,-5.5006406910251826e-05
3.63485384013984e-07,-2.972384936583694e-05,-4.17884839407634e-05
-5.609801519312896e-06,-3.339015893288888e-05,-2.579080501163844e-05
-1.8594402718008496e-05,-1.9299306586617604e-05,-1.7602817024453543e-05
-3.719175583682954e-05,1.2965764653927181e-05,-1.970972698472906e-05
-4.5997021516086534e-05,3.764524808502756e-05,-3.0449393307208084e-05
-2.7805976060335524e-05,3.554876093403436e-05,-3.787056266446598e-05
-3.492254336379119e-06,2.9811571948812343e-05,-3.1480889447266236e-05
1.1730778169294354e-05,3.4597385820234194e-05,-3.82025282306131e-05
2.8893255148432218e-05,2.710962507990189e-05,-9.552169649396092e-05
3.520850441418588e-05,3.7510801575990627e-06,-0.00013112743909005076
2.4656410460011102e-05,-1.7032823961926624e-05,-9.666051482781768e-05
3.4424663226673147e-06,-1.951323611137923e-05,-4.378056473797187e-05
-1.4268222912505735e-05,-1.1942783203267027e-05,-4.095651092939079e-06
-8.108685506158508e-06,-4.821472884941613e-06,2.4343722543562762e-05
9.314990165876225e-06,-2.590849589978461e-06,5.0605965952854604e-05
1.7260279491893016e-05,-1.75416721504007e-06,6.177136674523354e-05
2.249109820695594e-05,1.8542603186233464e-07,5.9774116380140185e-05
2.2415086277760565e-05,1.946982820300036e-06,6.520733586512506e-05
1.0882969036174472e-05,3.864251539198449e-06,8.862328104441985e-05
2.3020706976240035e-06,6.348152965074405e-06,0.00011209626973140985
2.725367266975809e-06,9.285235137213022e-06,0.00012322899419814348
7.443695722031407e-06,1.0303502676833887e-05,0.00011767436808440834
1.2711620911431964e-05,9.543287887936458e-06,9.990584658225998e-05
1.2863674783147871e-05,6.969974947423907e-06,8.324897498823702e-05
4.255465228197863e-06,4.338684902904788e-06,7.515440665883943e-05
-2.0340139599284157e-06,1.155632389782113e-06,6.904811743879691e-05
-2.8221492698321526e-07,-2.469241451308335e-07,5.75374360778369e-05
-6.374410190801427e-07,1.0060425665869843e-06,4.534522304311395e-05
-5.515969860425685e-06,3.5573841614677804e-06,3.6012592318002135e-05
-1.054149561241502e-05,2.984585307785892e-06,2.496154593245592e-05
-2.0067574951099232e-05,1.4658986629001447e-06,1.3561339073930867e-06
-2.6720896130427718e-05,2.6235395580442855e-06,-1.874063309514895e-05
-1.9648310626507737e-05,2.3351017262029927e-06,-2.1617339371005073e-05
-5.430817509477492e-06,-1.1789068139478331e-06,-2.8578935598488897e-05
3.4039894671877846e-06,-1.1764723240048625e-06,-4.783363692695275e-05
-9.881254300125875e-06,1.1522884051373694e-06,-7.011640991549939e-05
-3.801641287282109e-05,1.4989138890086906e-06,-0.00010080642095999792
-4.778491711476818e-05,-1.972454811038915e-06,-0.0001156018115580082
-3.146023300359957e-05,-5.8100245041714516e-06,-9.992910054279491e-05
-1.0706049579312094e-05,-5.9577769206953235e-06,-7.270895730471238e-05
1.4399443898582831e-05,-3.2607717912469525e-06,-5.4407762945629656e-05
3.941887553082779e-05,3.1737333756609587e-06,-4.2180960008408874e-05
5.0563921831781045e-05,8.835024345899e-06,-2.662235601746943e-05
5.037191658630036e-05,7.786320566083305e-06,-5.6340190894843545e-06
3.885133264702745e-05,3.3872531730594346e-06,1.837912896007765e-05
1.8344699128647335e-05,7.428512844853685e-07,3.6191682738717645e-05
1.310418724642659e-06,7.922327682763353e-09,4.41606534877792e-05
-1.7134746030933456e-06,-1.6196390788536519e-06,4.058732156408951e-05
1.3661664297615062e-06,-4.525874373939587e-06,3.6236127925803885e-05
1.8292071217729244e-06,-7.3019059527723584e-06,4.1423514630878344e-05
-2.570951210145722e-06,-7.718645065324381e-06,5.172088640392758e-05
-1.0603267583064735e-05,-5.0402863962517586e-06,6.188466068124399e-05
-8.913287274481263e-06,-4.264028575562406e-06,7.401798211503774e-05
9.994681022362784e-06,-8.005772542674094e-06,8.593967504566535e-05
2.5528532205498777e-05,-1.2509135558502749e-05,9.035183029482141e-05
2.4487504560966045e-05,-1.388715099892579e-05,8.528500620741397e-05
1.801827602321282e-05,-1.3473880244418979e-05,7.259834819706157e-05
1.3973048226034734e-05,-1.3395566384133417e-05,5.885244536329992e-05
1.0486351129657123e-05,-1.5407367754960433e-05,4.38960014434997e-05
4.21229560743086e-06,-1.6224224964389578e-05,1.7575835954630747e-05
-2.0780987597390777e-06,-1.3666518498212099e-05,4.9621548896539025e-06
-3.828858552878955e-06,-8.231098945543636e-06,2.068628054985311e-05
6.183827736094827e-06,-1.545770601296681e-06,3.379648114787415e-05
1.8425515008857474e-05,8.345144806298777e-07,1.353907191514736e-05
2.198647052864544e-05,7.397659942398604e-07,-3.262992322561331e-05
1.2709805560007226e-05,3.756446631086874e-06,-5.8653633459471166e-05
-5.401696398621425e-06,5.738752861361718e-06,-5.863885962753557e-05
-5.269297616905533e-06,2.3046191017783713e-06,-5.920946932747029e-05
5.384733867686009e-06,-1.0590500778562273e-06,-6.884313916089013e-05
7.139602985262172e-06,-3.006433644259232e-07,-8.431868627667427e-05
2.8290285172261065e-06,7.313118430829491e-07,-9.153137216344476e-05
-8.490354048262816e-06,-2.709005855194846e-07,-8.855255146045238e-05
-2.1269339413265698e-05,-2.578898374849814e-06,-8.366815745830536e-05
-2.2400154193746857e-05,-2.752174623310566e-06,-7.389546954073012e-05
-1.5716537745902315e-05,-1.7879127653941396e-06,-5.030593820265494e-05
-1.0191301953454968e-05,4.085995612967963e-07,-2.0155441234237514e-05
-3.5512155136530055e-06,2.759576545940945e-06,1.125690687331371e-06
2.5420706606382737e-06,4.832736067328369e-06,1.1156481377838645e-05
1.284986410610145e-06,4.792589152202709e-06,2.2634911147179082e-05
-4.63403466710588e-06,2.3357147256319877e-06,4.3747611925937235e-05
-1.2522226825240068e-05,7.584775829627688e-08,6.707304419251159e-05
-2.7156997020938434e-05,-1.628384893592738e-06,7.954903412610292e-05
-4.037106555188075e-05,-1.9291646822239272e-06,7.63607895351015e-05
-4.0294151403941214e-05,-2.537328327889554e-06,7.773553079459816e-05
-2.8729475161526352e-05,-2.2236513359530363e-06,0.00010054534504888579
-1.0802868018799927e-05,-1.2453183444449678e-06,0.00013286565081216395
6.135291641840013e-06,-2.32905222219415e-06,0.00014739377365913242
1.1607044143602252e-05,-4.111614543944597e-06,0.00013115578622091562
9.375118679599836e-06,-1.450920763090835e-06,0.00010825946083059534
5.0682838264037855e-06,4.528845238382928e-06,0.00010839317110367119
-5.570172561419895e-06,5.47537456441205e-06,0.0001230974739883095
-1.7782180293579586e-05,-1.98909106075007e-06,0.00011833563621621579
-2.096243406413123e-05,-1.206531760544749e-05,7.066615216899663e-05
-1.716170118015725e-05,-1.8313477994524874e-05,4.214438376948237e-06
5.418057298811618e-06,-1.9092540242127143e-05,-3.4952365240314975e-05
3.987444142694585e-05,-1.5595338481944054e-05,-4.109137807972729e-05
5.474926365423016e-05,-8.29470718599623e-06,-3.781647319556214e-05
3.8378206227207556e-05,-3.1525196391157806e-06,-4.048983464599587e-05
2.9929251468274742e-06,-1.4278630260378122e-06,-3.778056270675734e-05
-2.256794505228754e-05,7.311766836437528e-08,-2.792010855046101e-05
-2.5484649086138234e-05,2.4434707484033424e-06,-2.6278472432750277e-05
-1.5105042621144094e-05,2.8502258828666527e-06,-3.911665771738626e-05
-8.791149411990773e-06,5.721497586819169e-07,-6.915691483300179e-05
-8.677673577039968e-06,-1.6502726793987677e-06,-0.00010758185089798644
-9.660901014285628e-06,7.054954664909019e-08,-0.00012591623817570508
-9.34958370635286e-06,3.997310159320477e-06,-0.00010640813707141206
-1.5162738691287814e-06,5.6700746426940896e-06,-6.290364399319515e-05
9.202712135447655e-06,4.086206445208518e-06,-1.8719787476584315e-05
5.517360932572046e-06,-5.082140432932647e-07,7.415839718305506e-06
-1.044553118845215e-05,-7.143853054003557e-06,3.3262451779592084e-06
-1.7742233467288315e-05,-1.101524230762152e-05,-2.4765813577687368e-05
-4.117189746466465e-06,-7.5949665188090876e-06,-4.0016737330006436e-05
2.5822591851465404e-05,-3.094228759437101e-06,-2.5646437279647216e-05
4.24046884290874e-05,-2.483483285686816e-06,9.98863106360659e-06
3.0071396395214833e-05,-7.45247461964027e-06,5.736920502386056e-05
1.005583271762589e-05,-1.2620259440154769e-05,8.519262337358668e-05
-1.493465902058233e-07,-9.436295840714592e-06,8.538165275240317e-05
6.019486704644805e-07,-3.6966237075830577e-06,9.173779108095914e-05
4.499783244682476e-06,-1.9385731775400927e-06,0.00011703196651069447
1.3593537460110383e-06,-4.387216449686093e-06,0.00013911756104789674
-9.883513484965079e-06,-7.509627721447032e-06,0.00014448826550506055
-1.403112128173234e-05,-3.3491958220110973e-06,0.00013327805208973587
-8.657866601424757e-06,1.9835797502310015e-06,0.00011548688053153455
-1.5168250229180558e-06,2.131783276126953e-06,0.00010356066195527092
3.1106246751733124e-06,-1.2270508022993454e-06,9.630227577872574e-05
-2.6262384835717967e-06,-1.0220584272246924e-06,8.743310900172219e-05
-1.014269219012931e-05,3.023337740160059e-06,7.101300434442237e-05
-8.636211532575544e-06,6.031872089806711e-06,5.308656909619458e-05
-4.01350644096965e-06,6.464832495112205e-06,3.7863312172703445e-05
-2.4667394882271765e-06,6.24903032075963e-06,1.9826655261567794e-05
-4.134700759550469e-07,7.364979865087662e-06,-8.390331458940636e-06
-1.1410367051212233e-06,6.9111629272811115e-06,-3.9669226680416614e-05
-4.1232851799577475e-06,4.627420366887236e-06,-5.942778807366267e-05
1.7290659570790012e-06,2.39230644183408e-06,-6.45065083517693e-05
1.3485835552273784e-05,2.791402948787436e-06,-6.284977280301973e-05
1.417872408637777e-05,3.7118634281796403e-06,-6.457466952269897e-05
3.993126028944971e-06,2.246143139927881e-06,-6.878787826281041e-05
-1.551186528558901e-06,-1.4415296618608409e-06,-7.085179095156491e-05
-2.214856976934243e-06,-4.465037363843294e-06,-6.926329660927877e-05
-3.801533921432565e-06,-5.759216492151609e-06,-6.043997564120218e-05
-3.379643203516025e-06,-6.336238129733829e-06,-4.853931750403717e-05
-4.39428367826622e-06,-6.264547664613929e-06,-4.454759255168028e-05
-5.899802545172861e-06,-4.292852736398345e-06,-3.97369331039954e-05
7.758903279864171e-07,-3.5161274354322813e-06,-1.9032002455787733e-05
1.9585113477660343e-05,-6.606023816857487e-06,7.86587770562619e-06
4.200915282126516e-05,-6.506924819404958e-06,2.6208921553916298e-05
3.973548155045137e-05,3.464595920377178e-06,3.920902236131951e-05
9.999304893426597e-06,1.912735569931101e-05,5.808716014144011e-05
-1.0163862498302478e-05,2.5841656679403968e-05,9.173082798952237e-05
-1.1913556591025554e-05,1.8715847545536235e-05,0.00012824875011574477
-1.1473302038211841e-05,7.5865955295739695e-06,0.00014465127605944872
-1.1733270184777211e-05,3.2121613458002685e-06,0.00011296570301055908
-1.2597318345797248e-05,1.3717655747313984e-05,5.656188659486361e-05
-7.042353900033049e-06,3.4224503906443715e-05,2.818211396515835e-05
1.173696273326641e-05,5.301757846609689e-05,3.734074562089518e-05
3.3276133763138205e-05,6.209577986737713e-05,6.401687278412282e-05
3.951630787923932e-05,6.0728605603799224e-05,8.191757660824805e-05
3.384603405720554e-05,4.890320997219533e-05,7.836587610654533e-05
1.9206385331926867e-05,1.6187723304028623e-05,5.818589488626458e-05
-1.4168321058605216e-06,-4.621540574589744e-05,3.614181696320884e-05
-9.835700438998174e-06,-0.00011547836038516834,2.2775620891479775e-05
3.089085112151224e-06,-0.0001405763759976253,2.0857343770330772e-05
1.8993943740497343e-05,-0.00010838236630661413,2.0996314560761675e-05
2.017599399550818e-05,-6.359719554893672e-05,1.0292256774846464e-05
8.636067832412664e-06,-4.518319110502489e-05,-1.0087954251503106e-05
-6.804825261497172e-06,-4.9669826694298536e-05,-2.6513524062465876e-05
-1.0209674655925483e-05,-6.135708099463955e-05,-3.70120324078016e-05
2.5439823048145627e-07,-6.69358269078657e-05,-5.004715421819128e-05
3.8318339647958055e-06,-5.7621640735305846e-05,-7.830639515304938e-05
-2.670398316695355e-06,-4.006178642157465e-05,-0.00011181922309333459
-8.770824024395552e-06,-1.4971342352509964e-05,-0.00011635741248028353
-1.0213375389866997e-05,9.654091627453454e-06,-8.695600263308734e-05
-1.6094835473268176e-06,3.578125688363798e-05,-5.691644400940277e-05
-2.1537000520766014e-06,6.462522287620232e-05,-3.46443266607821e-05
-1.5838968465686776e-05,7.749584619887173e-05,-1.2042477465001866e-05
-1.9667542801471427e-05,6.993469287408516e-05,2.322140608157497e-05
-1.8683458620216697e-05,6.316975486697629e-05,6.606912211282179e-05
-2.631804636621382e-05,8.185909246094525e-05,7.232367352116853e-05
-3.458423088886775e-05,0.00010104562534252182,4.207342135487124e-05
-3.199771526851691e-05,8.802181400824338e-05,-4.117538992431946e-06
-1.445966881874483e-05,4.188696766505018e-05,-3.81902682420332e-05
9.497506653133314e-06,-6.565855073858984e-06,-2.7691672585206106e-05
2.625490196805913e-05,-3.990887489635497e-05,1.535149203846231e-05
2.740455420280341e-05,-6.043629764462821e-05,4.929689384880476e-05
1.6331709048245102e-05,-6.620810745516792e-05,6.126228981884196e-05
-1.451927801099373e-06,-5.2275092457421124e-05,7.154283957788721e-05
-1.8396418454358354e-05,-2.3401569706038572e-05,8.971674833446741e-05
-2.2451677068602294e-05,8.328575859195553e-06,0.00010241410927847028
-1.1003594408975914e-05,3.37419769493863e-05,9.825904999161139e-05
9.644164720157278e-07,3.9924070733832195e-05,8.347210678039119e-05
2.4476423732266994e-06,2.5234756321879104e-05,6.840853893663734e-05
1.553246420371579e-07,5.608919764199527e-06,6.238417699933052e-05
3.846170329779852e-06,-3.757805188797647e-06,6.33134477538988e-05
2.5546620236127637e-05,-7.937376722111367e-06,6.402787403203547e-05
4.355241253506392e-05,-1.6638026863802224e-05,5.303270881995559e-05
2.431764551147353e-05,-3.4858021535910666e-05,2.4320494048879482e-05
-3.092833367190906e-06,-4.618326056515798e-05,-1.4325861229735892e-05
-1.0917124200204853e-06,-3.295644637546502e-05,-4.8542991862632334e-05
1.4259146155382041e-05,-1.96493442672363e-06,-5.888401574338786e-05
2.4222466890932992e-05,2.0350064005469903e-05,-5.002198668080382e-05
1.848208012233954e-05,2.5668699890957214e-05,-4.415690273162909e-05
-3.283069190729293e-06,2.9102358894306235e-05,-4.954160249326378e-05
-1.9122520825476386e-05,3.434622340137139e-05,-6.642118387389928e-05
-1.934784449986182e-05,3.159530751872808e-05,-8.073908247752115e-05
-4.686967258749064e-06,2.1929465219727717e-05,-7.910637214081362e-05
1.648302895773668e-05,1.0540423318161629e-05,-6.377981480909511e-05
2.3067997972248122e-05,3.8856496757944115e-06,-4.640994666260667e-05
7.957105481182225e-06,1.6749945643823594e-06,-3.1423987820744514e-05
-1.3543735803978052e-05,4.052126598708128e-07,-1.568412517372053e-05
-2.7640619009616785e-05,7.190205906226765e-07,3.778742211579811e-06
-3.1407813366968185e-05,1.1134488886455074e-06,2.225551725132391e-05
-2.2118178094387986e-05,-4.2671092614909867e-07,3.0277768019004725e-05
-7.693591214774642e-06,-4.629916929843603e-06,2.7696016331901774e-05
-1.9014995586985606e-06,-8.722583515918814e-06,3.3113326935563236e-05
-2.2406713924283395e-06,-1.0795281013997737e-05,5.648125443258323e-05
4.34822680972502e-07,-7.683291187277064e-06,7.951745647005737e-05
4.58896874988568e-06,-5.332580599315406e-07,9.278218203689903e-05
6.372812549670925e-06,4.915652425552253e-06,0.00010602955444483086
-2.2149049527797615e-06,5.5054724725778215e-06,0.00013216465595178306
-2.2887201339472085e-05,4.148713742324617e-06,0.00015516138228122145
-2.089940790028777e-05,-1.565951947668509e-06,0.0001291910739382729
2.4150362150976434e-05,-6.905628197273472e-06,6.667408160865307e-05
6.224677781574428e-05,-7.563819963252172e-06,2.618198595882859e-05
5.7611821830505505e-05,-8.167666237568483e-06,2.0889192455797456e-05
3.4314420190639794e-05,-1.1454521882114932e-05,2.8348269552225247e-05
2.0559149561449885e-05,-1.2554173736134544e-05,1.930273174366448e-05
1.6179106751224026e-05,-1.228342080139555e-05,3.983997885370627e-06
1.3351354937185533e-05,-1.074947249435354e-05,3.0673620585730532e-06
8.970539056463167e-06,-8.04514183982974e-06,7.4976737778342795e-06
1.3669764484802727e-05,-1.2355009175735177e-06,3.317995151519426e-06
2.7177702577318996e-05,1.3581013263319619e-05,-1.2327103831921704e-05
3.046914207516238e-05,2.274282269354444e-05,-2.8398346330504864e-05
2.251223304483574e-05,1.837965646700468e-05,-3.911360545316711e-05
4.079383870703168e-06,7.933796041470487e-06,-4.821056063519791e-05
-1.019869523588568e-05,1.2876812434114981e-06,-5.6692409998504445e-05
-6.940552339074202e-06,-3.272620006100624e-06,-6.492606917163357e-05
7.2051211645884905e-06,-1.4358200132846832e-05,-7.0014430093579e-05
1.3188553566578776e-05,-3.488203583401628e-05,-6.601830682484433e-05
7.915814421721734e-06,-5.1004488341277465e-05,-5.4118743719300255e-05
-2.86685553874122e-06,-4.8375459300586954e-05,-3.983663918916136e-05
-1.3405395293375477e-05,-3.2377822208218277e-05,-2.707621933950577e-05
-1.4752523384231608e-05,-1.98947836906882e-05,-1.803812301659491e-05
-9.736590072861873e-06,-1.6696039892849512e-05,-1.2481806152209174e-05
-9.053484973264858e-06,-1.4350810488394927e-05,-7.766780072415713e-06
-1.1424837794038467e-05,-8.856674867274705e-06,-2.8169583856652025e-06
-9.716286513139494e-06,-4.114155672141351e-06,5.152068752067862e-06
-1.291186435992131e-05,-2.092672048092936e-06,1.649549994908739e-05
-2.24677878577495e-05,-4.713094767794246e-07,3.0082959710853174e-05
-2.4713661332498305e-05,-4.146855587805476e-07,5.19573331985157e-05
-2.3331251213676296e-05,-2.3804730062693125e-06,8.289358811452985e-05
-2.769457751128357e-05,-4.822259143111296e-06,0.0001103835747926496
-3.1455972930416465e-05,-5.213801614445401e-06,0.00011963480210397393
-2.8660899261012673e-05,-6.547312750626588e-06,9.777445666259155e-05
-7.594720955239609e-06,-7.927563274279237e-06,7.594918861286715e-05
1.1490505130495876e-05,-4.9532791308593005e-06,8.312889258377254e-05
1.2582499948621262e-05,-5.692203103535576e-06,8.796253678156063e-05
1.1677525435516145e-05,-7.373077096417546e-06,6.596650928258896e-05
1.1868249202962033e-05,-4.750290372612653e-06,3.873012610711157e-05
8.25112329039257e-06,-1.2732427876471775e-06,3.339666727697477e-05
3.135568022116786e-06,1.142952555710508e-06,4.5206739741843194e-05
-1.1817485301435227e-06,1.638308617657458e-06,6.076685895095579e-05
-4.226948476571124e-06,4.4753434735866904e-07,6.369238690240309e-05
-4.8079623411467765e-06,-7.557364369858988e-07,4.363960033515468e-05
-6.82064501233981e-06,-7.622568887200032e-07,5.14233124704333e-06
-1.2610527846845798e-05,-1.3604885680251755e-06,-2.958073491754476e-05
-1.626962148293387e-05,-1.9085907752014464e-06,-4.0812799852574244e-05
-8.776067261351272e-06,-1.7352576833218336e-06,-3.677699714899063e-05
7.837476914573926e-06,3.517245659168111e-07,-4.441112105268985e-05
2.2484293367597274e-05,3.124757313344162e-06,-8.13728547655046e-05
2.4557119104429148e-05,5.354340828489512e-06,-0.000122830766486004
1.3131390915077645e-05,6.365083208947908e-06,-0.00013061772915534675
-4.4078379346501606e-07,6.0855268202431034e-06,-0.00010462784848641604
-7.127607659640489e-06,4.7557928155583795e-06,-7.75756998336874e-05
-9.416996363142971e-06,3.1524616588285426e-06,-6.259974179556593e-05
-8.663030826028262e-07,3.39147527483874e-06,-4.946893750457093e-05
1.7155740351881832e-05,4.204131528240396e-06,-2.8925291189807467e-05
2.3325186703004874e-05,3.3367953164997743e-06,-1.3445783224597108e-06
1.1794893907790538e-05,4.61919898953056e-06,1.6741358194849454e-05
-1.9713145320565673e-06,7.688799087191e-06,2.2046418962418102e-05
-1.3804952686768956e-05,9.960528586816508e-06,2.2308138795779087e-05
-2.9119953978806734e-05,9.35613479668973e-06,2.729341395024676e-05
-4.6483582991641015e-05,6.026433311490109e-06,4.4303400500211865e-05
-5.146707553649321e-05,4.048491518915398e-06,7.223977445391938e-05
-2.7487662009662017e-05,1.0197983328907867e-06,0.00010840198228834197
-1.3096686188873718e-06,-3.2740367714723106e-06,0.0001383847848046571
1.926890035974793e-06,-1.0437178389111068e-05,0.00015747424913570285
-8.375842298846692e-06,-1.4699649000249337e-05,0.00015295897901523858
-1.5910472939140163e-05,-1.1541337698872667e-05,0.00012082664034096524
-6.2290009736898355e-06,-4.960314072377514e-06,8.603836613474414e-05
1.603801138116978e-05,-1.7989522120842594e-06,6.424778985092416e-05
3.1101528293220326e-05,-3.318777999083977e-06,3.979891334893182e-05
3.238637509639375e-05,-4.70099030280835e-06,1.45496314871707e-05
3.5650642530526966e-05,-2.4764838144619716e-06,9.708843208500184e-06
3.903197648469359e-05,3.3759658890630817e-06,2.6553583666100167e-05
2.7579671950661577e-05,9.714604857435916e-06,5.1787254051305354e-05
6.7077166931994725e-06,1.2249412975506857e-05,6.641024083364755e-05
-3.190915094819502e-06,1.0360015949117951e-05,5.591770968749188e-05
2.9213856578280684e-06,8.167942723957822e-06,2.0203708118060604e-05
1.4647444004367571e-05,6.808537364122458e-06,-1.4281285075412598e-05
2.0842395315412432e-05,6.3944926296244375e-06,-2.602492895675823e-05
1.2746776519634295e-05,7.715441824984737e-06,-2.2599624571739696e-05
-5.941100425843615e-06,1.0342440873500891e-05,-3.45571206707973e-05
-2.1300358639564365e-05,8.646406058687717e-06,-7.131669553928077e-05
-2.339272396056913e-05,4.521828032011399e-06,-0.00010652036871761084
-1.2371395314403344e-05,3.2904999898164533e-06,-0.00011505565635161474
1.0130660484719556e-05,7.148227723519085e-06,-0.00010019983164966106
3.4817770938389e-05,1.7052800103556365e-05,-8.241796604124829e-05
5.014059934183024e-05,2.6978945243172348e-05,-7.280641875695437e-05
5.02453840454109e-05,3.13276395900175e-05,-6.548065721290186e-05
3.4862863685702905e-05,3.538665623636916e-05,-5.667459481628612e-05
2.06950480787782e-05,4.0665192500455305e-05,-4.943440580973402e-05
1.2770105058734771e-05,3.62707614840474e-05,-4.0804090531310067e-05
4.066014753334457e-06,8.339184205397032e-06,-2.2606211132369936e-05
-2.3956120003276737e-06,-4.6338351239683107e-05,6.788570772187086e-06
-1.020477975544054e-05,-9.19267040444538e-05,4.041893407702446e-05
-1.829920984164346e-05,-8.897045336198062e-05,6.743318226654083e-05
-1.549368244013749e-05,-5.0349841330898926e-05,8.764861559029669e-05
-4.203309345029993e-06,-1.446228452550713e-05,0.00010407388617750257
3.591965196392266e-06,-3.1158567708189366e-06,0.0001143763292930089
3.2525342703593196e-06,-9.860956197371706e-06,0.00011753110447898507
-3.8433331610576715e-06,-1.859823169070296e-05,0.00011907394218724221
-7.67725123296259e-06,-1.6644629795337096e-05,0.00012173759751021862
-1.4208909533408587e-06,-3.157069613735075e-06,0.00012720563972834498
5.582583980867639e-06,1.402918769599637e-05,0.00013502150250133127
2.775353095785249e-06,2.578647035988979e-05,0.00013737540575675666
-5.1345878091524355e-06,2.3865288312663324e-05,0.00012327269359957427
-9.962095646187663e-06,8.520522897015326e-06,8.09695920906961e-05
-1.4081445442570839e-05,-7.950839972181711e-06,2.8362770535750315e-05
-1.3503814443538431e-05,-1.3844902241544332e-05,-1.0925639799097553e-05
-5.338217761163833e-06,-1.4168126654112712e-05,-3.3966494811465964e-05
-3.1797248993825633e-06,-1.5307245121221058e-05,-4.459051342564635e-05
-8.199222065741196e-06,-1.5253680430760141e-05,-4.96713983011432e-05
2.218799899367241e-08,-7.508548605983378e-06,-5.3488238336285576e-05
1.8340107999392785e-05,1.023684177425821e-07,-6.135452713351697e-05
1.883106233435683e-05,3.024404122697888e-07,-6.897561252117157e-05
1.2114596756873652e-06,6.038744686520658e-07,-7.096159242792055e-05
-1.799304118321743e-05,2.9078285024297656e-06,-7.443198410328478e-05
-1.83551983354846e-05,1.7936959011422005e-06,-8.419540972681716e-05
-6.977842986088945e-06,-1.2708509302683524e-06,-9.191603749059141e-05
2.2966246433497872e-06,8.12871348898625e-07,-7.949579594423994e-05
7.405447831843048e-06,7.558769993920578e-06,-5.19528693985194e-05
1.6486493450429407e-06,1.1377079317753669e-05,-3.136709347018041e-05
-4.574580998450983e-06,7.2338871177635156e-06,-2.7437563403509557e-05
-6.480423166976834e-07,2.5014269340317696e-06,-2.6733559934655204e-05
1.0345520422561094e-05,1.2734434449157561e-06,-1.8869062841986306e-05
1.2672845514316577e-05,2.323687340322067e-06,2.534118948460673e-06
3.4051765851472737e-06,3.2484467737958767e-06,3.543911225278862e-05
-1.1444078154454473e-05,3.720868335221894e-06,6.61884478176944e-05
-2.5431954782106914e-05,2.270705181217636e-06,7.653560169273987e-05
-2.961601785500534e-05,1.3550894095715194e-07,6.908381328685209e-05
-2.063553620246239e-05,9.82292476692237e-07,6.944817141629755e-05
-1.1468594493635464e-05,2.13379530578095e-06,9.144233627012e-05
-9.973666237783618e-06,4.205811023894057e-07,0.00012086695642210543
-1.2998960301047191e-05,-2.808769295370439e-06,0.00013722633593715727
-2.091852729790844e-05,-3.3365020044584526e-06,0.00013611292524728924
-2.208696423622314e-05,-1.9103474642179208e-06,0.00011847334099002182
-1.0185620340052992e-05,-1.4746618717254023e-06,9.758155647432432e-05
1.7264612779399613e-06,-1.8978687421622453e-06,8.083518332568929e-05
1.5038573110359721e-05,-2.115012648573611e-06,5.7891284086508676e-05
3.5748787922784686e-05,-1.973186272152816e-06,2.741226489888504e-05
4.441362034413032e-05,-3.092433871643152e-06,1.1668260412989184e-05
3.38211830239743e-05,-6.245804343052441e-06,1.1081430784543045e-05
1.8868386177928187e-05,-6.306618161033839e-06,5.472820248542121e-06
7.369858394667972e-06,-4.467551207198994e-06,-1.4134260709397495e-05
1.1263482520007528e-05,-1.575172404955083e-06,-3.44903783116024e-05
2.1842890419065952e-05,-5.530763473871048e-07,-3.810033012996428e-05
2.2330807041726075e-05,5.322449396771844e-07,-3.840067074634135e-05
