4.715323666459881e-05,8.077174243226182e-06,6.0671824030578136e-05
2.8392512831487693e-05,1.9199129383196123e-05,6.20964274276048e-05
3.6779672427655896e-06,2.4639048206154257e-05,6.3319195760414e-05
-1.779411468305625e-05,1.2210276508994866e-05,5.00786118209362e-05
-2.60349170275731e-05,-1.5477231499971822e-05,2.524391129554715e-05
-1.3380274140217807e-05,-3.35386284859851e-05,1.6427766240667552e-06
-3.2285934139508754e-06,-2.657223194546532e-05,-2.0010849766549654e-05
-1.7441288946429268e-05,-9.262271305487957e-06,-3.683306567836553e-05
-4.328117938712239e-05,-6.359718440762663e-07,-4.037985854665749e-05
-5.866829815204255e-05,2.692887335342675e-07,-3.354869841132313e-05
-6.728498556185514e-05,1.936184389705886e-06,-2.4084260076051578e-05
-6.610783020732924e-05,3.818322056758916e-06,-1.7976182789425366e-05
-4.2578070861054584e-05,2.140060360034113e-06,-1.93626583495643e-05
3.4050415820274793e-07,-8.738161909604969e-07,-2.4302735255332664e-05
3.2319432648364455e-05,-1.3556830253946828e-06,-2.6383973818155937e-05
3.368133548065089e-05,-5.261289288682747e-07,-2.550030876591336e-05
1.6901969502214342e-05,-6.911922696417605e-07,-2.3450444132322446e-05
2.452260014251806e-05,-1.958524990186561e-06,-2.0071320250281133e-05
5.618072100332938e-05,-3.5871603358827997e-06,-1.605068246135488e-05
6.704335828544572e-05,-4.780841209139908e-06,-1.4510684195556678e-05
4.694753806688823e-05,-8.884800308806007e-07,-1.0000170732382685e-05
7.948564416437875e-06,2.4327009668922983e-06,7.2338834797847085e-06
-2.888468952733092e-05,-3.8020409647288034e-06,1.8363238268648274e-05
-4.750158404931426e-05,-1.272243207495194e-05,2.0072193365194835e-05
-6.203627708600834e-05,-1.1203831491002347e-05,2.8659904273808934e-05
-8.875522325979546e-05,1.0027880534835276e-06,3.769381146412343e-05
-0.00012840500858146697,1.2110909665352665e-05,3.358136382303201e-05
-0.00017895836208481342,1.545590021123644e-05,1.0897552783717401e-05
-0.0002180206502089277,1.362294551654486e-05,-3.5897749057767214e-06
-0.0001995699421968311,1.2675094694714062e-05,8.645225534564815e-06
-0.00012184314255136997,1.7068608940462582e-05,3.147195457131602e-05
4.680992788053118e-06,2.4254191885120235e-05,4.886426904704422e-05
0.0001765661727404222,3.1357853004010394e-05,5.474578938446939e-05
0.0003421558940317482,3.715386992553249e-05,5.470309406518936e-05
0.00040996563620865345,3.919651862815954e-05,6.008534546708688e-05
0.00034945402876473963,3.221276347176172e-05,7.308977365028113e-05
0.0002012516197282821,1.336644527327735e-05,8.167979831341654e-05
2.3262160539161414e-05,-1.1581869330257177e-05,7.429235120071098e-05
-0.00012439346755854785,-3.172005745000206e-05,5.452293044072576e-05
-0.00021255234605632722,-4.043821900268085e-05,3.355081571498886e-05
-0.00024466769536957145,-3.503995685605332e-05,1.43289944389835e-05
-0.00020920709357596934,-1.748556678649038e-05,2.7268877147434978e-06
-0.0001254076196346432,-2.577608597675862e-07,1.4844282532067155e-06
-0.00010286922770319507,5.159042757441057e-06,-6.352241143758874e-06
-0.0001789012021617964,1.3796227449347498e-06,-1.6467154637211934e-05
-0.0002797326596919447,-1.3137782843841705e-06,-1.3726309589401353e-05
-0.0003309487656224519,-6.883240985189332e-06,-1.6946027244557627e-05
-0.0002783235104288906,-1.5919154975563288e-05,-2.9122940759407356e-05
-0.00011755934247048572,-2.379777106398251e-05,-3.511269096634351e-05
5.221545507083647e-05,-2.4272238078992814e-05,-2.7071868316852488e-05
0.00021042281878180802,-1.4383323104993906e-05,5.836221589561319e-06
0.0003389634075574577,-3.9849255699664354e-06,4.765887570101768e-05
0.0003653394232969731,-6.961327159160646e-08,6.104552448960021e-05
0.00033961990266107023,-6.900214657434844e-07,5.0895996537292376e-05
0.00028823595494031906,-7.720367420915863e-07,4.1364120988873765e-05
0.00018807528249453753,-2.1785488115710905e-06,3.3589072700124234e-05
4.9895053962245584e-05,-5.5301852626143955e-06,1.2110028364986647e-05
-8.061329572228715e-05,-1.1195956176379696e-05,-3.4523658541729674e-05
-0.0001584036072017625,-1.3126645171723794e-05,-7.28884624550119e-05
-0.00014142371946945786,-9.068184226634912e-06,-6.574773578904569e-05
-6.058996223146096e-05,-4.95299173053354e-06,-2.772248444671277e-05
2.3063423668645555e-06,-4.2409533307363745e-06,3.709245902427938e-06
1.4386658222065307e-05,-6.047775968909264e-06,2.154263529519085e-05
-3.695130999403773e-06,-6.1507171267294325e-06,3.506566281430423e-05
-1.5930916561046615e-05,-3.1224731174006592e-06,4.6436100092250854e-05
-9.564078936818987e-06,-2.2461490516434424e-06,5.259277895675041e-05
3.622609710873803e-06,-8.79154777067015e-06,5.395043262979016e-05
2.485360710124951e-06,-1.615845576452557e-05,5.2426948968786746e-05
-3.80398864763265e-06,-1.76565044966992e-05,5.1683764468180016e-05
-5.9780199990200344e-06,-1.4023691619513556e-05,5.042472912464291e-05
-2.7254543510935036e-06,-1.117362262448296e-05,3.947436562157236e-05
1.3705574019695632e-05,-1.082356902770698e-05,2.2688618628308177e-05
7.674511289224029e-05,-9.471064004173968e-06,1.2982392945559695e-05
0.0002216083084931597,-4.7137209548964165e-06,1.1391985026421025e-05
0.00036587080103345215,9.264840059586277e-07,1.299195719184354e-05
0.00036632930277846754,3.9934125197760295e-06,1.1213545803911984e-05
0.00020678840519394726,1.5724750710433e-06,4.197468115307856e-06
3.8826051422802266e-06,3.706117581714352e-07,8.02020622359123e-06
-0.0001384157221764326,2.2259687284531537e-06,1.6027739548007958e-05
-0.00021752803877461702,7.195608020538202e-08,1.4259124327509198e-05
-0.00021740053489338607,-4.370018359622918e-06,3.5750481401919387e-06
-0.00013942043005954474,-5.690175385097973e-06,-1.2468351997085847e-05
-4.663615982281044e-05,-2.414199343547807e-06,-2.6037629140773788e-05
-2.276525083289016e-05,2.809007355608628e-07,-3.0033021175768226e-05
-0.00010390461829956621,2.613341223423049e-07,-2.820890767907258e-05
-0.0002168376522604376,-3.466715952527011e-06,-2.3786271412973292e-05
-0.0002488288446329534,-7.664551958441734e-06,-1.3997478163219057e-05
-0.00018128161900676787,-6.794276941946009e-06,-5.939515631325776e-06
-9.323730046162382e-05,-1.1038795264539658e-06,-8.198408977477811e-06
-4.719406206277199e-05,3.546531615938875e-06,-8.811665793473367e-06
-4.974103285348974e-05,2.9627190087921917e-06,1.2483928912843112e-05
-7.721061410848051e-05,1.3505476772479597e-06,4.789672311744653e-05
-9.37635704758577e-05,3.483711452645366e-06,7.448691030731425e-05
-5.890902320970781e-05,6.125292657088721e-06,8.459069795208052e-05
7.510861451009987e-06,4.09592348660226e-06,8.101838466245681e-05
4.9937421863432974e-05,-5.704252430405177e-07,6.93441616022028e-05
5.44699068996124e-05,2.7068591634815675e-07,6.0054619098082185e-05
4.722235826193355e-05,6.389509053406073e-06,5.6394157581962645e-05
3.874895992339589e-05,9.174338629236445e-06,5.266192965791561e-05
2.8573931558639742e-05,4.3567747525230516e-06,4.019204789074138e-05
2.530969140934758e-05,-2.0476539930314175e-07,3.377830216777511e-05
3.876838673022576e-05,3.2846110116224736e-06,4.086469562025741e-05
3.8675247196806595e-05,5.772478289145511e-06,3.592240682337433e-05
-2.3839986624807352e-06,2.8785213999071857e-06,1.5179663023445755e-05
-5.1636918215081096e-05,-6.258561597860535e-07,-3.72628346667625e-06
-7.489713607355952e-05,-7.294837445215308e-08,-1.1766802344936877e-05
-8.09945777291432e-05,1.2765535757353064e-06,-9.424735253560357e-06
-5.9941463405266404e-05,-2.7328596843290143e-06,-8.766754035605118e-06
-5.595261995949841e-07,-1.0945058420475107e-05,-1.6932955986703746e-05
6.961800681892782e-05,-1.323856758972397e-05,-1.3233096069598105e-05
0.00010186946019530296,-5.604625584965106e-06,1.273193265660666e-05
9.197074541589245e-05,2.3198292637971463e-06,3.167527756886557e-05
8.084670844255015e-05,3.493954864097759e-06,2.025375397352036e-05
8.924167195800692e-05,-2.0432401015568757e-06,-5.345917998056393e-06
9.465558832744136e-05,-9.202835826727096e-06,-2.8630493034143e-05
8.511497435392812e-05,-1.4621233276557177e-05,-4.3635754991555586e-05
7.947008998598903e-05,-1.4187020497047342e-05,-4.031332355225459e-05
7.705837197136134e-05,-6.8650256253022235e-06,-1.6678664906066842e-05
6.59149736748077e-05,1.4587554630907107e-07,7.544906111434102e-06
4.31376502092462e-05,-1.6225006902459427e-06,1.4792505680816248e-05
8.616360901214648e-06,-7.273263236129424e-06,1.2320132555032615e-05
-3.8371214031940326e-05,-1.0082442713610362e-05,1.238327968167141e-05
-7.472117431461811e-05,-1.037735455611255e-05,1.3115293768350966e-05
-8.690841059433296e-05,-1.0373025361332111e-05,8.102645551844034e-06
-8.123244333546609e-05,-1.0986097549903207e-05,3.654753072623862e-06
-4.459319097804837e-05,-7.399378318950767e-06,1.718279963824898e-05
4.045247260364704e-05,-1.3811344388159341e-06,4.709146014647558e-05
0.00014444065163843334,1.0946938573397347e-06,6.539596506627277e-05
0.00024750339798629284,2.7977525860478636e-06,7.050883868942037e-05
0.0003179545747116208,4.939576228935039e-06,7.16812428436242e-05
0.00030183614580892026,4.282998816051986e-06,6.969620153540745e-05
0.00023792048159521073,9.301562045038736e-07,5.316777605912648e-05
0.00018097611609846354,9.71052998011146e-08,2.4028551706578583e-05
0.00011698998423526064,2.4978091914817924e-06,1.5474017345695756e-05
3.083436604356393e-05,2.1331327388907084e-06,2.654594754858408e-05
-7.65356162446551e-05,2.658832499946584e-06,2.7764042897615582e-05
-0.00016967729607131332,4.212534804537427e-06,2.651641352713341e-06
-0.00023787740792613477,3.6339135931484634e-06,-3.210654540453106e-05
-0.0003408186021260917,3.793933501583524e-06,-4.6746372390771285e-05
-0.0004922838415950537,4.55454710390768e-06,-3.353792635607533e-05
-0.0005538976984098554,6.257191671465989e-06,-6.410441528714728e-06
-0.0003924320044461638,8.83454140421236e-06,1.877388422144577e-05
-5.731847704737447e-05,1.1294247997284401e-05,4.016821549157612e-05
0.00026309533859603107,1.2697032616415527e-05,6.259547808440402e-05
0.0004375300195533782,1.4607649063691497e-05,8.706712105777115e-05
0.0004896197933703661,2.0778576072189026e-05,9.716728527564555e-05
0.0004832063859794289,2.8717297027469613e-05,7.716348045505583e-05
0.0004160173994023353,2.8886908694403246e-05,3.972619742853567e-05
0.00026406842516735196,1.835416696849279e-05,1.2207191502966452e-05
7.07611397956498e-05,4.106422238692176e-06,-1.9462634099909337e-06
-8.847039134707302e-05,-8.438363693130668e-06,-2.8593867682502605e-05
-0.00021036333055235445,-1.9660339603433385e-05,-8.281904592877254e-05
-0.00031678052619099617,-3.163544897688553e-05,-0.0001286045735469088
-0.0003530569083523005,-3.710440068971366e-05,-0.00012165556836407632
-0.00029224291210994124,-2.6618272386258468e-05,-7.129747973522171e-05
-0.00018432103388477117,-7.414328138111159e-06,-1.8349404854234308e-05
-8.578224515076727e-05,6.901485448906897e-06,1.5221860849123914e-05
-1.851135675678961e-05,8.692799383425154e-06,2.260901965200901e-05
2.4778410079306923e-05,2.992512008859194e-06,2.0456032871152274e-05
3.8657708500977606e-05,-8.499704904352257e-07,2.4320792363141663e-05
2.0884857804048806e-05,-1.6812863350423868e-06,2.8229846066096798e-05
7.210794137790799e-06,-1.3533215224015294e-06,3.654093234217726e-05
9.160700642496522e-07,-2.322416094102664e-06,4.503634772845544e-05
-7.384704190371849e-07,9.466139090363868e-07,4.884450390818529e-05
-3.7235699892335106e-06,6.519977432617452e-06,4.96095308335498e-05
-6.994487648626091e-06,8.999096280604135e-06,5.7866942370310426e-05
-1.2420169696270023e-05,5.952773790340871e-06,6.641460640821606e-05
-1.4750367881788407e-05,2.21548634726787e-06,6.739680247846991e-05
-1.4341789210448042e-05,2.706939085328486e-06,5.897393566556275e-05
-1.5694022295065224e-05,3.2062205264082877e-06,4.6179262426448986e-05
-1.1439256923040375e-05,2.1633202322846046e-06,3.751755502889864e-05
-5.020177013648208e-06,1.5996380398064503e-06,3.411525540286675e-05
5.521089406101964e-06,1.2888514220321667e-06,3.822959843091667e-05
3.625928729888983e-05,3.0749495749660127e-07,4.6889188524801284e-05
8.675024582771584e-05,-1.537702765119775e-08,5.017446892452426e-05
0.00010752328671514988,-1.9871399672410917e-06,2.7929898351430893e-05
8.65921174408868e-05,-4.651913968700683e-06,-1.2655314094445202e-05
6.069805021979846e-05,-4.683644419856137e-06,-4.0131319110514596e-05
4.090717266080901e-05,-4.5040183067612816e-06,-4.3930525862379e-05
3.262748123233905e-06,-5.130012141307816e-06,-3.5814609873341396e-05
-4.83655312564224e-05,-4.284742317395285e-06,-2.3502723706769757e-05
-9.511527605354786e-05,-4.405491381476168e-06,-1.4300594557425939e-05
-0.00011237788567086682,-4.022956545668421e-06,-1.2062904716003686e-05
-0.0001027579783112742,1.142317159974482e-06,-4.101860213268083e-06
-8.080417319433764e-05,6.892226338095497e-06,1.5157891539274715e-05
-4.998533768230118e-05,2.7597629923548084e-06,2.846452480298467e-05
-2.287270581291523e-05,-1.921013563332963e-06,2.586400296422653e-05
-1.3316539480001666e-05,2.87710008706199e-06,1.1593466297199484e-05
6.199364861458889e-07,3.793707264776458e-06,-7.439212481585855e-07
2.0698922526207753e-05,-1.4392091543413699e-05,-1.1869051377288997e-05
2.6835235985345207e-05,-2.9234819521661848e-05,-2.0336819943622686e-05
3.154680598527193e-05,-1.6554071407881565e-05,-1.8071445083478466e-05
5.491794217959978e-05,7.632760571141262e-06,-6.52929747957387e-06
9.594133007340133e-05,2.1708225176553242e-05,5.309100743033923e-06
0.00012633537699002773,2.0493147530942224e-05,1.4582433323084842e-05
0.00011399267532397062,9.909766959026456e-06,1.69396516866982e-05
5.9823003539349884e-05,-6.781538672839815e-07,1.0831674444489181e-05
-3.4699023672146723e-06,-1.3775448906017118e-06,5.053662334830733e-06
-4.797257497557439e-05,4.4131256800028495e-06,9.668907296145335e-06
-8.613319369032979e-05,6.818777364969719e-06,3.194262899341993e-05
-0.0001450863346690312,2.2307469862425933e-06,6.697725621052086e-05
-0.00022229479509405792,-6.35105379842571e-06,9.933210822055116e-05
-0.00029446775442920625,-1.355139374936698e-05,0.00011021104000974447
-0.0002929344482254237,-1.4051398466108367e-05,9.976338333217427e-05
-0.0001536169438622892,-8.590515790274367e-06,7.849102257750928e-05
0.00010087018017657101,4.10837901654304e-06,6.483262404799461e-05
0.0003678688663057983,1.567399885971099e-05,6.107969238655642e-05
0.000513251987285912,1.2584492651512846e-05,4.4215223169885576e-05
0.0004337625578045845,-2.0300069536460796e-06,-9.181324458040763e-06
0.00019107339903712273,-1.634405998629518e-05,-7.818522135494277e-05
-4.725015605799854e-05,-1.8933713363367133e-05,-0.00010246682359138504
-0.0001237471733475104,-1.2535347195807844e-05,-6.224316166481003e-05
-5.0203849241370335e-05,-6.540705726365559e-06,-1.80139049916761e-05
5.1698214520001784e-05,-4.168346549704438e-06,-1.2345063623797614e-05
0.0001397607265971601,-5.803514795843512e-06,-2.4780554667813703e-05
0.00019546943076420575,-9.799152394407429e-06,-3.401689900783822e-05
0.00019270573102403432,-1.0849200407392345e-05,-3.713197656907141e-05
0.00010310633660992607,-3.379571353434585e-06,-3.723352347151376e-05
-5.2718587539857253e-05,4.769645329361083e-06,-2.670589674380608e-05
-0.00024959712754935026,-1.0319809007341973e-06,-1.1501290828164201e-05
-0.00041429081466048956,-1.9956940377596766e-05,-6.405026397260372e-06
-0.0004769680672325194,-3.3978802093770355e-05,-8.28667816676898e-06
-0.00043480360182002187,-3.1772524380357936e-05,-6.049961484677624e-06
-0.00031438953010365367,-1.8867665858124383e-05,6.465915248554666e-06
-0.00014532470959238708,-4.752129370899638e-06,3.0165680072968826e-05
2.7621346816886216e-05,5.553297341975849e-06,4.9842812586575747e-05
0.00015600417100358754,8.383532076550182e-06,3.116033985861577e-05
0.00022087388788349926,1.2189913149995846e-06,-2.788916026474908e-05
0.00021248847770038992,-1.0331552402931266e-05,-6.499671872006729e-05
0.00015259887732099742,-1.3988063074066304e-05,-2.9768667445750907e-05
8.012924081413075e-05,-3.5333659980096854e-06,4.3456100684124976e-05
3.828053377219476e-05,9.478170795773622e-06,9.45822466746904e-05
3.349001781316474e-05,1.4643235772382468e-05,9.271239105146378e-05
6.781138654332608e-05,1.1999796697637066e-05,4.628113310900517e-05
0.00017628917703405023,1.9926628738176078e-06,6.857932476123096e-06
0.00034357659751549363,-7.671881576243322e-06,3.878065399476327e-06
0.00045086824684403837,-1.2129845345043577e-05,1.975199302250985e-05
0.00038292788667604327,-9.222507287631743e-06,2.463434611854609e-05
0.00015116625581867993,-1.6088537222458399e-06,1.652871105761733e-05
-0.00011748950782930478,1.8994082893186715e-06,1.1169836398039479e-05
-0.00033445507870055735,1.4569915265383315e-06,5.060576313553611e-06
-0.00046113526332192123,-3.6198716770741157e-06,-7.990727681317367e-06
-0.00048326552496291697,-1.003709803626407e-05,-2.3651893570786342e-05
-0.0004187048471067101,-1.419311320205452e-05,-3.842906153295189e-05
-0.0002862412657123059,-1.3024022337049246e-05,-5.6281412980752066e-05
-0.00012653668818529695,-7.078744147293037e-06,-6.147476960904896e-05
-1.3984360521135386e-05,9.279901860281825e-07,-4.2138264689128846e-05
4.7398316382896155e-05,6.173263955133734e-06,-1.9971113943029195e-05
0.00010362814646214247,3.3528062886034604e-06,-1.1394019566068891e-05
0.00015158281894400716,-4.4552616600412875e-06,-1.4384776477527339e-05
0.00014408597780857235,-1.0195265531365294e-05,-2.4631814085296355e-05
7.592650217702612e-05,-8.536240784451365e-06,-3.0286541004898027e-05
6.801119980082149e-06,-3.008145995408995e-06,-2.079021214740351e-05
-3.420701250433922e-05,2.9566885473286675e-07,-3.783389956879546e-08
-6.978110468480736e-05,-4.105344032723224e-06,2.2317888578982092e-05
-0.00010952522279694676,-1.3068693988316227e-05,3.7979469198035076e-05
-0.00011692262341966853,-1.4270527572080027e-05,4.147682921029627e-05
-8.286551019409671e-05,-4.369436283013783e-06,3.076035500271246e-05
-3.076358916587196e-05,8.159093340509571e-06,2.5369832655997016e-05
2.1921721781836823e-05,1.65398796525551e-05,5.0327827921137214e-05
8.021076791919768e-05,1.8898999769589864e-05,9.181091445498168e-05
0.0001083434690372087,2.1548588847508654e-05,0.00011101907875854522
7.443811773555353e-05,2.288046744070016e-05,8.411928138229996e-05
1.1275530596321914e-05,2.0597124603227712e-05,5.290510307531804e-05
-4.4297798012848943e-05,1.6357513231923804e-05,7.030859705992043e-05
-6.112267874414101e-05,5.331099146133056e-06,8.953319047577679e-05
-3.8310383388306946e-05,-6.027131803421071e-06,6.679211946902797e-05
-1.9142715245834552e-05,-3.9006854422041215e-06,3.7266770959831774e-05
-7.259562835315592e-07,6.726912033627741e-06,3.10960786009673e-05
4.2934138036798686e-05,1.030836756399367e-05,3.8837588363094255e-05
9.102539479499683e-05,8.679446182213724e-06,4.407691812957637e-05
0.00012805151345673949,7.833919880795293e-06,3.9379177906084806e-05
0.00016150814190041274,1.1550678209459875e-05,2.96147663902957e-05
0.00016749177302699536,1.6106290786410682e-05,1.8224034647573717e-05
0.00014042260590940714,6.320280135696521e-06,7.77063087298302e-06
0.0001116709245252423,-1.818740929593332e-05,2.8505294267233694e-06
0.00010146466229343787,-3.714248305186629e-05,3.245285370212514e-06
9.868251072475687e-05,-3.506319262669422e-05,1.3364965525397565e-06
8.561999129597098e-05,-1.987937866942957e-05,-1.2436526048986707e-05
5.616752969217487e-05,-8.174674803740345e-06,-3.439950160100125e-05
1.1094123692600988e-05,-3.4233034966746345e-06,-5.165239053894766e-05
-2.740549825830385e-05,1.5266745094777434e-06,-5.1910566980950534e-05
-3.8982241676421836e-05,8.258967682195362e-06,-3.728148294612765e-05
-3.1797218980500475e-05,1.0913938240264542e-05,-2.1304158508428372e-05
-3.517350342008285e-05,9.599069926480297e-06,-9.136775588558521e-06
-5.9266927564749494e-05,1.0622179615893401e-05,7.3014452937059104e-06
-8.696586155565456e-05,1.508238710812293e-05,2.7376660000300035e-05
-8.968720067059621e-05,1.7050213500624523e-05,4.7958819777704775e-05
-6.797046080464497e-05,1.52626362250885e-05,5.336859612725675e-05
-4.708474443759769e-05,9.823557775234804e-06,3.462545282673091e-05
-4.380978862172924e-05,1.5562650332867634e-06,1.644556687097065e-05
-2.2337058908306062e-05,-1.4760886415388086e-06,2.09510817512637e-05
4.957595592713915e-05,-2.609252078400459e-06,3.568387546692975e-05
0.00012723516556434333,-4.373674528324045e-06,3.8793205021647736e-05
0.00012747234723065048,-2.2170440843183314e-06,3.5507589927874506e-05
4.3793108488898724e-05,-2.9834391170879826e-06,2.9683775210287422e-05
-5.3965297411195934e-05,-1.1484567039588e-05,1.7524673239677213e-05
-0.00013980816584080458,-1.78669342858484e-05,8.029953278310131e-06
-0.00018819978868123144,-1.4166252185532358e-05,1.5198411347228102e-05
-0.00016621968825347722,-5.8513874137133826e-06,3.821524660452269e-05
-9.818655962590128e-05,1.6811083014545147e-06,5.653269909089431e-05
-3.341310366522521e-05,3.881973952957196e-06,5.414440965978429e-05
-3.4087238418578636e-06,3.863125925818167e-07,3.837518306681886e-05
-4.3879681470571086e-05,-3.6357184853841318e-06,3.046959318453446e-05
-0.00015357337542809546,-4.745171736431075e-06,3.6496439861366525e-05
-0.0002414055197732523,-3.9434539758076426e-06,4.158008596277796e-05
-0.00022356142289936543,-3.253602926633903e-06,3.618461778387427e-05
-0.00011795078171417117,-3.0059245545999147e-06,2.6471216187928803e-05
1.6707936083548702e-05,-3.1436643439519685e-06,1.850276385084726e-05
0.00014928511518519372,-4.1867251638905145e-06,8.351862561539747e-06
0.00024144010967575014,-7.515802735724719e-06,-7.084365279297344e-06
0.00028100822237320244,-1.0381338142906316e-05,-1.6914909792831168e-05
0.0002909598406404257,-6.588997621292947e-06,-1.1880660167662427e-05
0.00026513542979955673,8.290164146274037e-07,-1.5262320403053309e-06
0.00020032758766319603,3.2124823974299943e-06,-6.740864364473964e-07
0.00013030332047492266,-2.0795621935576492e-07,-6.471821052400628e-06
7.32400148990564e-05,-6.194818979565753e-06,-7.71767463447759e-06
1.1993436601187568e-05,-9.65571052802261e-06,-1.3339519682631362e-05
-3.284619015175849e-05,-1.2386286471155472e-05,-2.7711723305401392e-05
-1.1611062291194685e-05,-1.4730181646882556e-05,-3.124010981991887e-05
5.092218634672463e-05,-1.1808568160631694e-05,-2.1663099687430076e-05
7.800974708516151e-05,-5.3687826948589645e-06,-7.867636668379419e-06
3.779467806452885e-05,3.1805773232918e-06,1.6334886822733097e-05
-3.060161543544382e-05,9.825400411500596e-06,4.0440354496240616e-05
-6.066719288355671e-05,5.065364803158445e-06,4.9346632295055315e-05
-2.0373632651171647e-05,-3.4664853956201114e-06,4.855058796238154e-05
5.277776290313341e-05,-2.595220166767831e-06,4.781063398695551e-05
9.94886431726627e-05,1.9713172605406726e-06,4.635061850422062e-05
9.911994129652157e-05,3.526558430166915e-06,4.337670543463901e-05
6.879815191496164e-05,4.020260803372366e-06,4.407056258060038e-05
2.092177419399377e-05,5.208007678447757e-06,4.899170380667783e-05
-4.1578950913390145e-05,3.3076955787691986e-06,5.1849347073584795e-05
-0.00010431379632791504,-1.556034021632513e-06,4.625148358172737e-05
-0.0001447659742552787,-2.538821036068839e-06,3.923349504475482e-05
-0.00014487247972283512,1.8153139080823166e-06,3.949664460378699e-05
-0.00010782576282508671,3.0922233236196917e-06,4.2961171857314184e-05
-5.300382326822728e-05,-3.2919542718445882e-06,3.780530460062437e-05
-9.988388228521217e-06,-1.0757144082162995e-05,2.0486659195739776e-05
3.0753515147807775e-06,-1.299386076425435e-05,3.999058208137285e-06
-2.2640108454652363e-06,-9.276010132452939e-06,5.74521254748106e-06
-2.2507747416966595e-05,-2.3571187739435118e-06,2.0135552404099144e-05
-8.081520354608074e-05,3.736670350917848e-06,2.470099389029201e-05
-0.00016150320880115032,6.3792044784349855e-06,2.3157606847235e-05
-0.00018897990230470896,6.576565738214413e-06,2.9706845452892594e-05
-0.0001182248888653703,4.957437795383157e-06,2.3159424017649144e-05
1.4383867892320268e-05,1.7654778616815747e-07,-1.3865433174942154e-05
8.873907063389197e-05,-1.0450909030623734e-05,-4.8501809942536056e-05
7.730883226031438e-05,-2.1279449356370606e-05,-5.382621748140082e-05
4.692671791417524e-05,-2.0722125555039383e-05,-4.6431534428847954e-05
1.075888030754868e-05,-1.3695203961106017e-05,-4.3952797568636015e-05
-3.3900605558301322e-06,-8.81457071955083e-06,-4.530551450443454e-05
7.348250619543251e-06,-1.7858139926829608e-06,-3.113608545390889e-05
2.6875566618400626e-05,5.488446277013281e-06,2.008242972806329e-06
-1.8331875253352337e-05,-3.173450977556058e-07,2.9406946850940585e-05
-0.00013098576164338738,-1.4523116988129914e-05,3.3053296647267416e-05
-0.00018163397908210754,-2.1255507817841135e-05,1.9684752260218374e-05
-9.182999929180369e-05,-1.9256051018601283e-05,1.4803880731051322e-05
5.9642570704454556e-05,-1.1938992429350037e-05,3.074604319408536e-05
0.0001479562051827088,-3.233858478779439e-07,5.597867857431993e-05
0.00015698173956479877,1.151726974057965e-05,6.754627975169569e-05
0.00012515696289483458,1.8442306100041606e-05,5.610215157503262e-05
6.414871313609183e-05,1.915009124786593e-05,3.2106203434523195e-05
-1.8440130588714965e-05,1.4072395970288198e-05,2.1149615349713713e-05
-8.170772343873978e-05,8.644939043733757e-06,3.793616997427307e-05
-0.00010769110667752102,7.540100796177285e-06,6.661609222646803e-05
-0.0001062294322764501,9.765951290319208e-06,7.861220365157351e-05
-0.0001011694039334543,1.2388225513859652e-05,6.882785237394273e-05
-9.366589074488729e-05,1.0495674359844998e-05,5.52619130758103e-05
-5.201965177548118e-05,1.8990706394106383e-06,4.680677375290543e-05
4.60065966763068e-05,-6.741000561305555e-06,4.1088624129770324e-05
0.00016524105740245432,-1.0390749594080262e-05,3.962231130572036e-05
0.00023741269251331687,-8.235776476794854e-06,2.86819449684117e-05
0.00016343362221959978,-3.264911356382072e-06,-9.768221389094833e-06
-3.28751775668934e-05,-3.3640958463365678e-06,-4.0941253246273845e-05
-0.00011239120794925839,-4.479603376239538e-06,-3.3719839848345146e-05
2.6801460990100168e-05,-4.728555722977035e-06,-2.040139770542737e-05
0.00019995025650132447,-5.463311026687734e-06,-3.109158205916174e-05
0.00026596587849780917,-1.037205834109045e-06,-5.021071410737932e-05
0.0002171132218791172,4.810904556507012e-06,-5.664525815518573e-05
7.901371282059699e-05,1.3428783631752594e-06,-4.7293466195696965e-05
-9.284627594752237e-05,-1.1255098797846586e-05,-3.9956095861271024e-05
-0.00021613143326248974,-1.7040678358171135e-05,-4.8004767450038344e-05
-0.00024018366821110249,-9.154422514257021e-06,-5.4290605476126075e-05
-0.0001781207975000143,1.712542939458217e-06,-3.8189420592971146e-05
-8.895525388652459e-05,7.651502528460696e-06,-6.95876769896131e-06
-9.570717338647228e-06,1.3715626664634328e-05,1.3015282092965208e-05
5.60117514396552e-05,1.8251150322612375e-05,6.523218871734571e-06
9.565001528244466e-05,1.1585906577238347e-05,-1.3865384062228259e-05
9.796204540180042e-05,-8.473389812024834e-07,-2.191267049056478e-05
7.184872811194509e-05,-7.94936204329133e-06,-1.2602436981978826e-05
3.527816807036288e-05,-7.899834599811584e-06,1.916741894092411e-06
-8.865242307365406e-06,-4.2292958823964e-06,2.0128931282670237e-05
-4.8079971747938544e-05,2.009087893384276e-06,4.916310354019515e-05
-6.441595178330317e-05,7.502000244130613e-06,8.854459156282246e-05
-4.868212636210956e-05,6.764562385797035e-06,0.00012890172365587205
3.1862127798376605e-05,5.472942575579509e-06,0.00016465492080897093
0.0002072085626423359,1.1807343071268406e-05,0.00018332283070776612
0.0003883076424244791,1.8667738913791254e-05,0.00015209277626127005
0.00046518328599631786,1.7035466953529976e-05,8.469536260236055e-05
0.00037461312604136765,1.1648943655018229e-05,3.670345540740527e-05
0.0001739173021633178,9.547486115479842e-06,3.1383609893964604e-05
-8.57884697325062e-06,6.429709628719138e-06,3.184050729032606e-05
-0.00016953422164078802,-3.828770786640234e-06,-1.256252630810195e-07
-0.0003182116197422147,-1.943274401128292e-05,-4.4780907046515495e-05
-0.00036880793049931526,-2.9718332370975986e-05,-7.140078378142789e-05
-0.00030360862729139626,-2.8665506761171855e-05,-6.666203262284398e-05
-0.00022236033692024648,-1.8826915038516745e-05,-5.02290204167366e-05
-0.00018366034782957286,-1.0552198546065483e-05,-3.711487079272047e-05
-0.00015458806592505425,-8.666913345223293e-06,-3.2456893677590415e-05
-0.00010224969446426257,-6.825529453635681e-06,-3.5318866139277816e-05
-3.676122651086189e-05,-4.382146016723709e-06,-3.51189446519129e-05
1.424985072162599e-07,-2.4767684863036266e-06,-3.0895182135282084e-05
-1.0008992830989882e-05,-3.1043964554555714e-06,-2.8557347832247615e-05
-3.149871918139979e-05,-4.589493073581252e-06,-2.7771591703640297e-05
-3.19473838317208e-05,-5.320188847690588e-06,-2.3313941710512154e-05
-2.3028806026559323e-05,-5.902407792746089e-06,-1.847010207711719e-05
-2.5299963454017416e-05,-4.893969162367284e-06,-1.510995025455486e-05
-4.96044012834318e-05,1.1685932577165659e-06,-1.4117499631538521e-05
-0.00010874855070142075,1.0016940905188676e-05,-1.3699845112569164e-05
-0.00017510350153315812,1.435382819181541e-05,-1.4910830032022204e-05
-0.00017982743156608194,1.3306891560205258e-05,-1.306443755311193e-05
-8.419816003879532e-05,7.5709790507971775e-06,-7.613293746544514e-06
7.161140820244327e-05,-6.180903710628627e-06,3.1325228633249935e-08
0.00020278722513467073,-1.612755841051694e-05,7.217749043775257e-06
0.00025046858354471624,-1.0722941624408122e-05,8.426880413026083e-06
0.0002242032060166821,7.796950853844464e-07,3.055653451156104e-06
0.00015992742555681616,7.61292221795884e-06,-1.117334363698319e-06
8.497264934703708e-05,4.497509053180693e-06,6.8212434598535765e-06
1.3650048458657693e-05,2.359849986532936e-06,2.53365324169863e-05
-3.7122852518223226e-05,5.328330189513508e-06,4.405968138598837e-05
-4.197122325422242e-05,3.745206186067662e-06,5.70947267988231e-05
-2.8714075597235933e-06,2.2247505171435478e-07,6.322412082226947e-05
3.270780871389434e-05,-2.086527274514083e-06,6.006036710459739e-05
4.110401641810313e-05,-3.1797856081539067e-06,4.921465733787045e-05
3.763445056392811e-05,-2.724488467720221e-06,3.715908678714186e-05
2.0076411601621658e-05,1.6877971802387037e-06,2.986352592415642e-05
-1.3672254681296181e-05,7.997570719453506e-06,2.5483013814664446e-05
-4.147922663833015e-05,8.991903996502515e-06,1.8484346583136357e-05
-4.3880856537725776e-05,4.539621386356885e-06,1.305972364207264e-05
-2.4471757569699548e-05,8.240481292887125e-07,1.6932734069996513e-05
-1.4499048120342195e-05,2.081322008962161e-06,2.7096486519440077e-05
-7.310878572752699e-05,4.3378859118092805e-06,3.891010055667721e-05
-0.00019942667859140784,4.9523896450409666e-06,5.10527279402595e-05
-0.0002778260095510632,3.942094281228492e-06,5.2923369366908446e-05
-0.0002184423356084153,1.41178350077098e-06,3.140419357805513e-05
-7.228722097352147e-05,-1.656837298469327e-06,-1.5621259308318258e-06
5.793894888483919e-05,-3.606773589126533e-06,-2.4269242203445174e-05
0.00011857887147925794,-6.146933174022706e-06,-3.250681038480252e-05
0.00010517540067667142,-9.162720743915997e-06,-3.419665154069662e-05
6.11877694609575e-05,-1.0670802112144884e-05,-3.994704093202017e-05
5.2011087973369285e-05,-1.2573389540193602e-05,-3.9488582842750475e-05
8.965707820607349e-05,-1.2977774531464092e-05,-1.3254848454380408e-05
0.00013108454004395753,-9.45231022342341e-06,2.571970435383264e-05
0.00014002295210957527,-5.857686119270511e-06,4.7585988795617595e-05
0.00011127724428661168,-5.581647656072164e-06,3.6756002373294905e-05
7.636787631781772e-05,-8.99965289136162e-06,2.030705400102306e-05
5.937803507549688e-05,-1.3129438229952939e-05,3.197296609869227e-05
6.6719192545861e-05,-9.208952178596519e-06,6.286486313911155e-05
0.00011538065882632509,1.6421630562035716e-06,8.087624155450612e-05
0.00016820682503748685,6.1960931816429365e-06,6.703911640215665e-05
0.00016551694716326892,-4.3282159367663553e-07,3.6334135074866936e-05
0.00010310897778254002,-8.640653504699003e-06,1.6079069609986618e-05
2.0166338799754158e-05,-6.867703177704243e-06,2.4001345082069747e-05
-5.021582546760328e-05,2.7063506422564387e-06,4.37349226558581e-05
-0.00011097488459199667,1.1861652637890074e-05,5.393002720666118e-05
-0.0002032624470302835,1.8396618543192744e-05,6.531598046422005e-05
-0.0003278419317211956,2.349600435991306e-05,9.112285624723881e-05
-0.00040122459176927805,2.5412753529963084e-05,0.000107220585050527
-0.0003600508498493582,1.954215986188501e-05,9.219871571986005e-05
-0.0001900237111840397,1.0568041034275666e-05,6.76442650728859e-05
8.885771967470646e-05,8.504967809130903e-06,5.78127073822543e-05
0.00037038177833892405,1.4026762983121444e-05,5.564808816416189e-05
0.0005017736693844199,1.3823461813444737e-05,4.147770596318878e-05
0.0004558915679808706,-1.0436662023494137e-06,1.3763688002654817e-05
0.0003240301739424467,-2.0282148398109712e-05,-1.7041469618561678e-05
0.00015407349565066397,-2.769339334918186e-05,-4.00793032895308e-05
-3.1350973586086184e-05,-2.362274972256273e-05,-5.01535578223411e-05
-0.00017299056344199926,-2.288417636009399e-05,-5.521566708921455e-05
-0.0002276884624734521,-2.720622251217719e-05,-5.7461136748315766e-05
-0.00021071707305964082,-2.624858643685002e-05,-5.268496897770092e-05
-0.0002164860488846898,-2.1483911041286774e-05,-6.156753079267219e-05
-0.0002633376861922443,-2.4739587388467044e-05,-8.412334136664867e-05
-0.00022191937023308128,-2.7672382202581502e-05,-8.601284207543358e-05
-4.081838415004313e-05,-1.7512151316623203e-05,-5.8963847550330684e-05
0.00017109661712311208,1.272655708817183e-06,-2.3466274797101505e-05
0.00028304540319368243,1.385227824357571e-05,4.903635044684052e-07
0.00025595122133381665,1.4034580999577884e-05,7.440818535542348e-06
0.00014206919877324253,1.1111665116914082e-05,1.8505000980439945e-06
1.749463626765646e-05,5.462369244924048e-06,-5.221405899646925e-06
-9.495604172116145e-05,-7.027319952612743e-07,-3.42315252055414e-06
-0.00018319417722523212,-6.396937351382803e-06,1.3471561715050484e-06
-0.0001973118633031845,-1.043165957526071e-05,8.771008651820011e-06
-0.00013204677088651806,-1.3404969649855047e-05,1.3120709809300024e-05
-4.698877819464542e-05,-1.5047317901917268e-05,5.59942600375507e-06
6.4899923017947e-06,-1.6693522411515005e-05,-8.778084520599805e-06
1.111375149775995e-05,-1.5100214113772381e-05,-1.2846845493186265e-05
-9.90368971542921e-06,-4.726417500933167e-06,6.625592050113482e-06
4.0557682723374455e-07,1.0356739949202165e-05,5.016189970774576e-05
6.480638694483787e-05,2.2452893972513266e-05,0.00010169164306716993
0.00012923192116431892,2.4230364942923188e-05,0.00013108752318657935
0.00013582287647295743,2.1218567781033926e-05,0.00012193479051347822
8.420342055615038e-05,2.0197974663460627e-05,8.788077684585005e-05
8.742595127841923e-06,1.798556331777945e-05,5.396882625063881e-05
-3.8421676435973495e-05,4.892990091320826e-06,2.9375039957812987e-05
-1.359230464004213e-05,-1.8425291273160838e-05,7.489192284992896e-06
9.259872604161501e-05,-3.917297726729885e-05,-1.6539988791919313e-05
0.00020587041217368096,-4.372451439849101e-05,-3.290489985374734e-05
0.00021833086793776602,-2.343013693462126e-05,-2.958450568257831e-05
0.00012402338325046003,-1.6576778989474406e-06,-6.507385023724055e-06
-1.1553499462024774e-05,3.4448069072823273e-06,1.4577764886780642e-05
-0.00014719688624609262,4.753331268148031e-06,1.5778487068018876e-05
-0.0002674325951375067,1.6135059013322461e-06,5.951223442934861e-07
-0.0003188166883774102,-6.529090569529217e-06,-1.2024961506540421e-05
-0.00027125238557346165,-1.7595390090718865e-05,-1.9938866898883134e-05
-0.00015876883117016405,-2.0378089175210334e-05,-3.0473962397081777e-05
-5.507566311280243e-05,-1.2719122423732188e-05,-4.12663102906663e-05
-1.8580074538476765e-05,7.298488071683096e-07,-3.450554868322797e-05
-2.0894009139738046e-05,1.019617684505647e-05,4.973255727236392e-07
-1.3745352589467075e-05,1.0631355507939588e-05,4.358122168923728e-05
3.896156158589292e-06,5.747460363636492e-06,6.434837268898264e-05
7.133799044822808e-06,2.2478436676465208e-06,6.61857338855043e-05
-1.720978798402939e-05,6.0604011196119245e-06,6.496891001006588e-05
-6.104439671617001e-05,1.2854071428591851e-05,5.716461964766495e-05
-7.08684092387557e-05,1.4693626326334197e-05,4.186474689049646e-05
8.587758202338591e-06,1.082977087207837e-05,3.253751856391318e-05
0.00014846128760837018,1.0745271538326051e-05,3.3469972549937665e-05
0.00023926564608700573,1.0652131095412187e-05,3.4844124456867576e-05
0.00020368033437989652,3.7777749639644753e-06,2.9823397198924795e-05
5.941703784628771e-05,-7.586049378005555e-06,1.2484745639085304e-05
-9.09466398297809e-05,-1.291426542593399e-05,-1.1094429055447108e-06
-0.00013826732174493372,-9.500025043962523e-06,1.2696535122813657e-05
-8.690487447893247e-05,-2.895998704843805e-06,3.80732562916819e-05
-4.170146439719247e-06,2.9896964406361803e-06,4.324638575781137e-05
8.340813656104729e-05,7.410801117657684e-06,3.399626075406559e-05
0.00014499790268018842,9.379466973769013e-06,2.191877138102427e-05
9.520115418126807e-05,9.476289051235653e-06,1.9657742086565122e-05
-1.2080828128091525e-05,3.4333904750383226e-06,2.697383752092719e-05
-3.772152558667585e-05,-5.49164133190061e-06,2.966399370052386e-05
5.364644948713249e-06,-7.660350092919543e-06,2.1714782633353025e-05
5.3948209824739024e-05,-9.861842045211233e-07,1.378932392981369e-05
9.777328523341566e-05,5.706763204216259e-06,1.2273298125364818e-05
0.00013115486945025623,8.77759975992376e-06,4.7645166887377854e-06
0.0001366574433632195,5.753468485636404e-06,-7.535162694694009e-06
0.00012254208559170365,-1.3713273006032978e-07,-1.354428331978852e-05
8.643920591566712e-05,-3.4372790196357528e-06,-1.6574775145272724e-05
4.126776184421033e-05,-1.6784754279797198e-06,-2.437719922454562e-05
-4.5414162741508335e-06,3.3385390452167485e-06,-3.9808852307032794e-05
-3.624813325586729e-05,5.499676262843423e-06,-5.833901377627626e-05
-4.5311804569792e-05,4.438320218014269e-07,-6.434220267692581e-05
-3.8707108615199104e-05,-9.497752216702793e-06,-4.904585512122139e-05
-1.7273765479330905e-05,-1.4484661733149551e-05,-2.250437501061242e-05
1.8410120901535265e-05,-1.226650238095317e-05,2.145715143342386e-07
5.7896802900359035e-05,-4.2618648876668885e-06,1.770592643879354e-05
7.376671419478953e-05,5.134126695338637e-06,3.1290666811401024e-05
5.977568798698485e-05,1.1894172530446667e-05,3.969121098634787e-05
2.4673705411260016e-05,1.1157380868098699e-05,4.132882895646617e-05
-2.469208266120404e-05,5.1425304263830185e-06,3.5951095924247056e-05
-8.595044346293435e-05,-4.832484137295978e-06,2.4987604774651118e-05
-0.0001327620993833989,-1.711183176666964e-05,1.038258142216364e-05
-0.00015890029317233711,-2.0501289327512495e-05,-8.393471034651157e-06
-0.00015867366164457053,-1.3599452358903363e-05,-1.4617754459322896e-05
-0.00012137465819250792,-2.893323880925891e-06,7.911240572866518e-06
-6.754606874892488e-05,5.429454176919535e-06,4.3293359340168536e-05
-7.017343364168482e-07,4.0902500586526e-06,6.483953620772809e-05
8.815197361400351e-05,-1.8711400571191916e-06,6.475472036981955e-05
0.0001334475673502311,-7.00450573276612e-06,5.0564220146043226e-05
0.00011085120786447078,-7.706971700827125e-06,3.430977449170314e-05
6.085763016017154e-05,-3.693356575240614e-06,3.3592910767765716e-05
2.4872508220141754e-05,5.903294777453993e-07,4.659200567402877e-05
1.6093457816168666e-05,-1.3974404282635078e-06,5.928074097028002e-05
2.410031811450608e-05,-5.054367647971958e-06,6.554750871146098e-05
6.478354771388695e-05,-5.282476649881573e-06,7.253986404975876e-05
0.00013867586676497012,-3.3291576073679607e-06,7.34210989321582e-05
0.00017201746231876314,-1.8307890741198207e-06,4.0056940633803606e-05
0.00012339970271568745,1.4326959671961959e-06,-1.3642519661516417e-05
6.655584729742259e-05,7.828622074157465e-06,-3.418737105675973e-05
4.1963954572565854e-05,1.2749675079248846e-05,-2.2371657451003557e-06
1.9863698980771005e-05,1.4720584658789448e-05,4.1818711906671524e-05
-5.289551609166665e-06,1.2673296623688657e-05,5.149763455847278e-05
7.201352332231181e-07,7.842933882784564e-06,1.7910237147589214e-05
5.575709656113759e-05,2.26753445531358e-06,-2.9312745027709752e-05
0.000167305173818022,-2.9150589853088604e-06,-6.048454451956786e-05
0.00023933101329021156,-8.119762242131401e-06,-7.441986963385716e-05
0.00015001145948190242,-1.0481103345227893e-05,-7.31248437659815e-05
-2.648078771017026e-05,-1.3742519513471052e-05,-5.391206650529057e-05
-0.00016675179358571768,-2.7308205972076394e-05,-2.9327198717510328e-05
-0.0002734517038334161,-4.166303915553726e-05,-1.4807649677095469e-05
-0.0003635459579527378,-3.4115801099687815e-05,-5.3696198847319465e-06
-0.0004172517219558358,-1.2859070011472795e-05,4.805754542758223e-06
-0.0004274005477782339,-1.2749759434882435e-06,8.895194127944706e-07
-0.00040112307760864496,-5.387875717133284e-06,1.6745643733884208e-06
-0.000347971566952765,-1.2454652278393041e-05,2.728411345742643e-05
-0.000290024298010394,-1.404591148457257e-05,4.937149424222298e-05
-0.00021967482462059706,-9.798341125133447e-06,5.352922380552627e-05
-0.00012073857215000317,-4.372096100269118e-06,4.978971992386505e-05
-1.5817049643374048e-05,4.062641892232932e-06,4.996239294996485e-05
5.695596701116301e-05,1.180006620415952e-05,5.726270319428295e-05
7.732812082394958e-05,1.459785744373221e-05,6.677896453766152e-05
6.648517592111602e-05,1.5794732462381944e-05,6.671994196949527e-05
5.206355854170397e-05,1.4780725905438885e-05,5.494943980011158e-05
3.9676357118878514e-05,1.3090824722894467e-05,3.7473106203833595e-05
2.6743215130409226e-05,9.409178346686531e-06,2.0522922568488866e-05
1.5358977179857902e-05,4.074154276167974e-06,1.4068404198042117e-05
-1.5030296708573587e-05,6.344063194774208e-07,2.5862696929834783e-05
-7.745275070192292e-05,3.0415603760047816e-06,4.393105336930603e-05
-0.00013859600585419685,4.7477860789513215e-06,4.836389416595921e-05
-0.00016577637870796025,2.0877178030787036e-06,3.763379208976403e-05
-0.00014696814469061792,-3.697541615110822e-07,2.2137039195513353e-05
-4.746526246890426e-05,2.340843821002636e-06,9.021943697007373e-06
0.00010807704529725015,7.433924110955559e-06,-7.822379757271847e-07
0.00021540852321777493,1.1625698789430317e-05,-3.25446080751135e-06
0.00025033712154254317,1.1493278179841582e-05,5.935681656410452e-06
0.0002522012800909579,3.962734353990527e-06,1.1998587069683708e-05
0.00022581509256269783,-4.363415428088047e-06,-5.7985175772046205e-06
0.00020638678688555956,-5.305064860294806e-06,-3.4626667911652476e-05
0.00021692391601391137,6.539648893522099e-07,-4.171570253674872e-05
0.0002236671425634995,6.899409072502749e-06,-3.471687887213193e-05
0.00022414747218135744,5.98928318140679e-06,-3.4401946322759613e-05
0.00020517683879006654,1.9259446162323e-06,-3.1591058359481394e-05
0.00015776886721141636,-1.394900209561456e-06,-2.3547414457425475e-05
0.0001168541275546886,-4.257709861121839e-06,-8.86230463947868e-06
9.36035648919642e-05,-2.1858220407011686e-06,2.0502935512922704e-05
6.42293380224146e-05,2.7928458621317986e-06,6.373973883455619e-05
1.0904172086156905e-05,5.6590361054986715e-06,9.165203664451838e-05
-6.137632590252906e-05,4.059249476995319e-06,8.847072604112327e-05
-0.00011588869529077783,-2.9734171675954713e-06,6.820389535278082e-05
-0.00011199058644706383,-9.622348443372175e-06,4.942235318594612e-05
-5.3382202167995274e-05,-3.783139618462883e-06,3.825507519650273e-05
1.6415615391451865e-05,1.2031904589093756e-05,2.9240569347166456e-05
3.859969001496211e-05,2.152568777091801e-05,3.3240259654121473e-05
1.063204649653926e-06,1.4911346625012811e-05,5.6068111007334664e-05
-2.3149063054006547e-05,1.6113252740979078e-06,7.077826012391597e-05
2.2238751625991426e-05,-5.273997430776944e-06,5.3625924920197576e-05
7.518042548326775e-05,-2.8397591904649744e-06,2.387706990703009e-05
6.318952364381403e-05,1.751152922224719e-06,9.363761819258798e-06
7.658832146262284e-06,-8.474356718579656e-07,1.5627052562194876e-05
-3.978087261202745e-05,-8.885469469532836e-06,2.822596979967784e-05
-5.096234963275492e-05,-1.0567254321358632e-05,3.6892739444738254e-05
-4.251278369338252e-06,-1.7885832903630217e-06,4.407961750985123e-05
7.753878162475303e-05,3.448585403020843e-06,3.936800567316823e-05
0.0001031732463161461,-6.22235984337749e-06,1.0673905308067333e-05
-8.725498446437996e-06,-2.1175650545046665e-05,-2.132221015926916e-05
-0.0002015638747252524,-2.2699012333760038e-05,-4.942579835187644e-05
-0.0002761660725809634,-1.3896237760491204e-05,-6.807108729844913e-05
-0.00019104276725556701,-3.144718220937648e-06,-5.8748715673573315e-05
-3.9322887460002676e-05,8.325981070811395e-06,-4.3988660763716325e-05
0.0001109529985114932,1.1084153811680153e-05,-4.082074519828893e-05
0.000183926968020387,1.7831550849223277e-06,-3.970735633629374e-05
0.0001706203183857724,-1.0849686077563092e-05,-3.871482840622775e-05
0.00010506228863960132,-1.2513904039224144e-05,-3.993257269030437e-05
3.2385516533395275e-05,-6.908036993991118e-06,-3.583799480111338e-05
-2.434600901324302e-05,-5.063731805421412e-06,-1.932884333655238e-05
-5.1346534746699035e-05,-9.041513294505421e-06,1.3687697446584934e-06
-4.4653850636677817e-05,-1.2695363693637773e-05,1.8716777049121447e-05
-1.9865923604811542e-05,-1.0482888683327474e-05,3.0451064958469942e-05
1.9708760135017656e-07,-5.803034582640976e-06,2.9167487809900194e-05
6.1884675233159214e-06,-5.8623504628485534e-06,1.2099306331947446e-05
-4.87403212900972e-06,-1.2473279639380053e-05,-9.605728337191977e-06
-4.343174077803269e-05,-1.6275871530524455e-05,-2.0247152860974893e-05
-9.178033360512927e-05,-8.899699423636775e-06,-1.0339373147871811e-05
-8.895327482605353e-05,5.744895588577492e-06,2.1032839867984876e-05
7.0404744292318355e-06,1.6310457795043476e-05,6.143842620076612e-05
0.00014145788736641407,1.707788214844186e-05,9.478382708039135e-05
0.0002191735547967255,1.201575287268497e-05,0.00012371958291623741
0.00020120695990044624,5.801827228424372e-06,0.00015229253040160984
0.0001618664391571656,-4.1608227547840215e-06,0.00015311023162212223
0.00016757476259954274,-1.2050054465362336e-05,0.00010117760393768549
0.00017586669127922505,-1.2670971955230925e-05,3.871390435961075e-05
0.00011321484635118395,-1.1277748853899539e-05,9.806614798435476e-06
-4.179410098004155e-05,-1.4392798220796976e-05,4.374547643237747e-06
-0.0001942863455042243,-1.8970706150867045e-05,-1.6330372091033496e-05
-0.00024800217943266034,-1.9449040337349288e-05,-5.1379032811382785e-05
-0.00022610356973018497,-1.1756335879908875e-05,-5.7089444453595206e-05
-0.0002076944219879806,-1.2205097164041945e-06,-3.8785237848060206e-05
-0.0002203127514803782,2.7155740554007934e-06,-2.3544527721242048e-05
-0.00020277702424209565,1.5797678543094662e-06,-2.2630625608144328e-05
-0.00013054507144261152,-3.201633091975964e-07,-2.6832422008737922e-05
-5.519527258002199e-05,-1.0621303090374568e-06,-3.0094342946540564e-05
-3.1403196771861985e-05,-9.707722483653924e-07,-3.0870975024299696e-05
-3.9627131627639756e-05,-3.5583336739364313e-06,-3.341621777508408e-05
-3.972772174165584e-05,-8.193082067009527e-06,-3.825920066446997e-05
-2.3705328203504905e-05,-7.823522537364624e-06,-3.833918526652269e-05
-9.484384463576134e-06,4.5808846493855526e-07,-2.955636773549486e-05
-5.0325124902883545e-06,8.854684892867226e-06,-1.4883935364196077e-05
-8.742457794141956e-06,1.1058918971684761e-05,2.2999197426543105e-06
-1.9549446733435616e-05,1.2269848411960993e-05,2.2031606931705028e-05
-2.6169040211243555e-05,1.4290878425526898e-05,3.266555359004997e-05
-2.6256237106281333e-05,1.1021990758308675e-05,1.824441278586164e-05
-2.835198574757669e-05,-1.406644855705963e-06,-1.1786367394961417e-05
-4.0157989133149385e-05,-1.2774529750458896e-05,-1.7320166080025956e-05
-5.5105690989876166e-05,-9.05089564184891e-06,1.0211626431555487e-05
-7.351178646786138e-05,7.829847163520753e-06,4.690704008680768e-05
-8.107009489322081e-05,2.5420653400942683e-05,6.871484220027924e-05
-5.483580389409326e-05,3.5006018151761964e-05,7.242095307447016e-05
-1.6740723367547616e-05,3.430073775234632e-05,6.02714681008365e-05
-6.842896709713386e-06,2.732321991061326e-05,3.4055308788083494e-05
-6.077485522837378e-06,2.1822888811584562e-05,2.5977495170081966e-05
3.9955430111149326e-05,2.2361524315783754e-05,4.873965008300729e-05
0.00014939179527573287,1.673811857472174e-05,5.8919540606439114e-05
0.00025966239627450705,-6.6704715209198184e-06,4.531726153800264e-05
0.00028703678981401026,-2.6242218154948205e-05,3.094258499913849e-05
0.00020597217371687293,-2.3088006855687127e-05,2.671284892130643e-05
8.396472549065948e-05,-1.230479665537132e-05,3.203395681339316e-05
1.5181903108896222e-05,-1.4758365978195798e-05,3.6222354538040236e-05
2.7781718017649837e-05,-3.0317656637635082e-05,3.135035512968898e-05
3.550663677742705e-05,-3.173458026139997e-05,1.898067603178788e-05
-3.0204773793229833e-05,-1.7681299141258933e-05,3.053716000067652e-06
-0.00012762006372213364,-8.999458259495441e-06,-1.1481877663754858e-05
-0.0001823785132728517,-1.2382148270262405e-05,-2.153198693122249e-05
-0.00018063119205180556,-1.8626673409016803e-05,-2.1755833586212248e-05
-0.00016276859969366342,-1.8511445887270384e-05,-1.029481973091606e-05
-0.00015317252837121487,-1.511363825557055e-05,2.9211698802100727e-06
-0.00014315334556158632,-1.536277704872191e-05,6.553728781000245e-06
-0.00010184395068790764,-1.7375286915921606e-05,2.2137789983389666e-06
-2.2207834263099357e-05,-1.396468906023074e-05,1.8414161786495242e-06
6.606485112570226e-05,-7.576167718070792e-06,8.372770935238805e-06
0.0001239434932358563,-6.460473400693445e-07,1.2825345038436353e-05
0.00015331253234762698,5.9379376580182e-06,-5.96435313582333e-07
0.0001778138685040176,1.1662791621347424e-05,-2.4585509891039692e-05
0.00020014194888062775,1.2567286830744706e-05,-3.0039540433790535e-05
0.00017850234871730208,1.0311987352906726e-05,-7.661649760848377e-06
7.69998732721433e-05,7.717883818258997e-06,2.032164775300771e-05
-8.572659862693399e-05,5.232689545664471e-06,3.371543425600976e-05
-0.00020807405235245824,3.1417027912539197e-06,3.5787590604741126e-05
-0.0001988799631362781,1.8147966329706833e-06,4.211730629322119e-05
-9.134969877777621e-05,5.332897217158461e-06,5.812956442241557e-05
7.266501052072272e-05,1.3554150427808054e-05,6.562860653502867e-05
0.00023528860765509307,1.4487491171166766e-05,5.11491707584355e-05
0.00027460415731184185,-3.499396143524791e-06,1.63647964654956e-05
0.00018486780754756182,-2.4324954210896976e-05,-2.0921645045746118e-05
5.570583380176686e-05,-2.6664956749300472e-05,-2.5013467165990733e-05
-4.0582559449831024e-05,-2.2110027202870697e-05,1.7502186437923228e-06
-7.866127998568118e-05,-1.6658232198096812e-05,3.0636132578365505e-05
-6.722097168676555e-05,-4.479151812120108e-06,4.295372491469607e-05
-1.4996729987615254e-05,1.1538904800545424e-05,3.880003350786865e-05
5.2327104640426114e-05,2.1634581571561284e-05,2.7408561436459422e-05
0.00013785462942905724,2.406475687166676e-05,2.3528884412371553e-05
0.00028293568175286055,2.401566962362267e-05,3.148494943161495e-05
0.0004489202983677387,1.9805334886768833e-05,3.5343909985385835e-05
0.0005085651064291596,1.0022665264841635e-05,2.3460930606233887e-05
0.00040303196874447167,-5.563466629610048e-07,6.919764473423129e-06
0.00017415446927770972,-3.7831100598850753e-06,9.42672102155484e-07
-0.00010197706433245912,-2.738905635624178e-08,3.081069905874756e-07
-0.00034167690319009125,5.862505986442557e-06,5.666266815751442e-07
-0.00047667240141890943,5.5811688071116805e-06,4.059643288201187e-06
-0.0004903448862023652,-5.334479283192195e-06,3.112410695393919e-06
-0.00041724229231476784,-1.6982314264168963e-05,-1.0493503395991866e-05
-0.0002961387508548796,-1.2732592040265445e-05,-1.4818338968325406e-05
-0.00017351897258777171,3.1351557936432073e-06,4.703500962932594e-06
-8.967264147941023e-05,9.159380169876385e-06,1.9353154129930772e-05
-1.5684430763940327e-05,-4.556515250442317e-06,2.2998356143943965e-06
4.689889829023741e-05,-2.1197643945924938e-05,-2.524563569750171e-05
5.734995284001343e-05,-2.1942792955087498e-05,-2.5362180167576298e-05
7.715291758358944e-06,-1.3170156307751313e-05,-2.503531504771672e-06
-4.91723621962592e-05,-8.061339940468315e-06,1.751288800733164e-05
-5.242427869234234e-05,-6.46568150841631e-06,3.1447492801817134e-05
-2.103684892063029e-05,-3.4977460927620996e-07,4.2491868953220546e-05
7.4391718953847885e-06,5.980173227726482e-06,4.430349144968204e-05
2.8628372092498466e-05,4.658681518776575e-06,4.2908381146844476e-05
4.5544016757048666e-05,1.3816846831105067e-06,5.3649993787985295e-05
4.5047847379464656e-05,4.315946171118412e-06,6.91070017637685e-05
3.940217720810324e-05,1.129274460254237e-05,8.170552609954029e-05
4.764753975905478e-05,1.1042566256946884e-05,8.560560672776774e-05
8.499341493006796e-05,4.114563580515096e-06,8.001261448953301e-05
0.0001608918100828305,1.56283476826502e-06,6.0404006944736466e-05
0.00026190333301201463,5.8892742345051374e-06,1.5461186194443144e-05
0.0003317444061394781,1.1074763278884348e-05,-2.9153565265005454e-05
0.00030943661113269627,1.4946769624657463e-05,-1.1147973964398261e-05
0.0001792706607375294,1.635219086892903e-05,6.132310954853892e-05
-4.1309056541649625e-05,9.521791980660055e-06,9.955291170626879e-05
-0.00028359272982925177,-4.604569767252542e-06,6.954236596357077e-05
-0.0004342669853940606,-1.6472351489937864e-05,1.535727824375499e-05
-0.00042739397031255066,-2.021218642767053e-05,-1.9532008082023822e-05
-0.00030573521507903934,-1.3710942766920198e-05,-1.6494806914124638e-05
-0.00015387822350021452,-2.9323873604880646e-06,5.394119398260955e-06
-2.2746153263142332e-05,-2.851146291504847e-06,3.2010234463086817e-06
4.5079283154336736e-05,-1.6579586372245103e-05,-2.1147201550775208e-05
4.047225957037881e-05,-2.8344580641714856e-05,-4.157946750638075e-05
2.4839118850650266e-05,-1.9302555301692337e-05,-3.821713835350238e-05
3.522936094668694e-05,4.254045052221045e-06,-1.9998331481474452e-05
4.292015728424303e-05,1.4285002180258743e-05,-1.3556147678173147e-05
5.1025572247453965e-06,3.840232238871977e-06,-2.3595686798216775e-05
-4.083210296812467e-05,-9.362389391753823e-06,-3.251732778153382e-05
-5.001952376915142e-05,-1.3830927855451591e-05,-2.1995092538418248e-05
-2.6806959795067087e-05,-1.0519336683501024e-05,-5.019355739932507e-06
3.7771701499877963e-06,-5.3877761274634395e-06,-1.1756012099795043e-05
2.1151139662833884e-05,6.405319936675369e-07,-2.845813287422061e-05
4.545041883829981e-05,3.057475169043755e-06,-2.3325386791839264e-05
7.392640691250563e-05,1.4455716836891952e-06,-1.0764385933725862e-06
6.612692959606647e-05,4.879714197159046e-07,1.2952730685356073e-05
2.2234047719393857e-05,2.0305126327002654e-06,1.816674011934083e-05
-1.8860284399124794e-05,1.5758125755382935e-06,3.0256962418206967e-05
-5.2013263484695926e-05,-2.366784656260279e-06,4.856017403653823e-05
-9.555475844535977e-05,-3.2284847293340135e-06,5.639108712784946e-05
-0.00014207921049091965,2.62557068708702e-06,5.1332011935301125e-05
-0.00016971728473436087,1.1431598068156745e-05,4.545203046291135e-05
-0.0001677375112194568,1.3661279808729887e-05,4.3263164116069674e-05
-0.00012561146286316216,7.845284926588647e-06,4.638057362171821e-05
-5.9949052229058e-05,3.997755015916482e-08,5.245707870926708e-05
1.2008682688247063e-06,-3.7819106637471123e-06,5.6439253967255354e-05
6.923701585037634e-05,-1.9458923361526104e-06,5.691162004950456e-05
0.0001564766571391374,-1.171510234598827e-06,5.875344868400134e-05
0.00018636966706253588,-7.937266673252452e-06,6.344239955069497e-05
1.874180270533543e-05,-1.2210082786623389e-05,7.032018766039982e-05
-0.00031388530624099076,-9.398489964951295e-06,6.149882392492145e-05
-0.00044427401735447347,-9.882793165161274e-06,2.5591911253286526e-05
-0.00024208924151025712,-1.6650148609187454e-05,-1.5946456187521107e-05
5.042741759098135e-05,-2.128338201146107e-05,-4.334810728323646e-05
0.00029965912108309567,-1.742920903780032e-05,-5.730095290346071e-05
0.0004400219477247447,-6.6112565946241375e-06,-5.7247423683293164e-05
0.0004371590039227158,-1.7580242683834513e-06,-5.183434404898435e-05
0.00031904320348985493,-9.21159426070517e-06,-5.039299139752984e-05
0.0001940188667504117,-1.870077358034905e-05,-4.6249828301370144e-05
0.00012157260061940178,-2.132890404027421e-05,-4.1134157072519884e-05
8.888993761502206e-05,-1.6189143934752792e-05,-3.7275938666425645e-05
7.278397242771462e-05,-1.0779868716781493e-05,-2.9712929972447455e-05
6.108327943366021e-05,-1.215759948536288e-05,-1.882891774585005e-05
4.512875239015557e-05,-2.0005965780001134e-05,-1.1019148587365635e-05
1.6132393284351565e-05,-2.5712381102493964e-05,-9.107798177865334e-06
-1.7918820958584547e-05,-1.682758920651395e-05,-1.0016397936851718e-05
-3.969892713939771e-05,2.6735829123936128e-06,-7.199850642791716e-06
-2.5939098122762516e-05,1.3183223018131685e-05,-3.2042894417827483e-06
5.665734533977229e-06,9.927152859745547e-06,-1.0767392268462572e-05
1.7928505258169025e-05,7.987055141711608e-06,-2.6153229555347934e-05
-9.006867912830785e-06,1.0649166142684408e-05,-2.8161215595901012e-05
-5.547930413740687e-05,1.2204323866171762e-05,-6.255761945794802e-06
-0.00010613718768581748,1.4201708836480975e-05,2.7441923521109857e-05
-0.00013184224371798337,1.390040688420413e-05,6.605449743801728e-05
-0.00011270809773122892,1.1050403372792061e-05,0.00010637579543981701
-6.62087113596499e-05,8.961418643593788e-06,0.00014577068213839084
-2.9263554097269662e-05,6.346574537019478e-06,0.00017117765673901886
-1.9401782992645167e-05,6.069547907827655e-06,0.00013684623991139233
-1.577513467054814e-05,7.745436960249208e-06,6.167123501654714e-05
3.46619744959753e-05,8.18600892671384e-06,2.017568112933077e-05
0.0001063383388100192,9.024410246638581e-06,2.3988459361135028e-05
0.00014333367289509624,8.784218152868561e-06,3.6159559385851026e-05
0.00015865055320318788,6.150473836896708e-06,3.0147413781378418e-05
0.0001646462915232405,5.668827270710608e-06,1.6670945115038194e-05
0.00015096277638804168,1.2203078767925035e-05,1.3222978850535583e-05
0.00012230563152115792,2.01841612579301e-05,1.0892850696109235e-05
7.765502232359722e-05,2.1588166418951005e-05,-4.988401087757666e-06
7.660119081265293e-06,1.3962853699922562e-05,-3.0331297239172272e-05
-6.16305842413567e-05,3.5220175504946383e-06,-4.280217399355024e-05
-0.00010293654486304149,-4.445319973456208e-06,-3.406743053346872e-05
-0.00010414681310066953,-8.716473530512303e-06,-1.7397022020304576e-05
-7.782525790389627e-05,-8.724086001166143e-06,-6.51501068205107e-06
-4.346558125689626e-05,-3.286607352492865e-06,-6.5246413214481436e-06
-1.177067133539822e-05,2.7147082164447056e-06,-1.1800227184721734e-05
1.5945188351906836e-05,3.306932967461762e-06,-1.3853356904292013e-05
2.6431474907440133e-05,-2.6900897864834405e-07,-1.4643340364273172e-05
1.9419177988311276e-05,-4.321163032727782e-06,-1.427730512659764e-05
8.65823767526308e-06,-5.105348463985138e-06,-7.841657065910113e-07
-1.7309916074736975e-05,-2.664071189428796e-06,2.5597626517992467e-05
-7.234894292196259e-05,-1.7072687796826358e-07,4.549937875708565e-05
-0.00011410946899559349,-6.017091891408199e-07,4.215092121739872e-05
-0.00010523074888624251,-7.098552714523976e-07,2.1374396965256892e-05
-7.130305311875418e-05,2.2361980427376693e-06,1.5025258107925765e-05
-1.988617987080943e-05,2.137327783202636e-06,3.512961120577529e-05
6.369368202285841e-05,-3.880999884131597e-06,5.803544263471849e-05
0.00014285548240877688,-6.433888756873785e-06,5.727354437112808e-05
0.00020860035147052258,-2.271140147058759e-06,4.385174543131143e-05
0.0002973097434733063,5.711833637178643e-06,3.791892231674865e-05
0.0003528918023221195,1.004493697109865e-05,2.783981108223088e-05
0.00030542787862941623,7.698680747125763e-06,1.778593832568731e-05
0.00016524935199413449,4.098248155059991e-06,1.1468132470326964e-05
-4.103441824554466e-06,-1.1179339480804629e-06,1.5882435036473908e-05
-0.0001232133072335273,-5.029738531447947e-06,3.955210922867991e-05
-0.00019434218120295554,-1.3821525044477312e-06,6.318721716525033e-05
-0.00026855221949517727,8.341626198671293e-06,6.782566924812272e-05
-0.00034160245559178293,1.4768625078431796e-05,5.181608139537275e-05
-0.0003755246289074421,9.758959095051978e-06,2.3797190806362778e-05
-0.0003598416515160352,-1.6342663684554282e-06,3.0220398912206292e-06
-0.0003077574947383255,-9.72782163444208e-06,4.827630164072616e-06
-0.00023101420083548874,-1.0468312211742159e-05,1.5379460819531232e-05
-0.00013714490341953933,-6.839537945779739e-06,8.412173883698415e-06
-2.865979513444472e-05,-2.730510459514335e-06,-1.3939750715508126e-05
6.588388350792229e-05,-2.0425959235126356e-07,-2.2022008124622516e-05
0.00010024302173405886,6.842386142125179e-07,-1.1255664503551088e-05
6.187526014400646e-05,1.1427913477746188e-06,-4.7444859774259385e-06
-2.659969322849065e-05,-2.5385170374647714e-06,-1.5198248547676485e-05
-0.00011975722009083256,-1.590870124346111e-05,-2.5846436983556487e-05
-0.00016056362073868513,-3.687540811370127e-05,-2.5501518393866718e-05
-0.0001507711422163993,-4.8966572649078444e-05,-3.355905937496573e-05
-0.0001379118621116504,-3.7869991501793265e-05,-4.995409108232707e-05
-0.00013958402269054204,-1.3345625120564364e-05,-4.508240090217441e-05
-0.0001191252376884222,7.455010290868813e-06,-1.279506705031963e-05
-4.590710159391165e-05,1.0923117770289537e-05,1.5327937944675796e-05
3.968075179727748e-05,8.503507160639856e-06,2.5661676772870123e-05
3.923166877939366e-05,1.777033321559429e-05,3.48793801094871e-05
-4.845783405471593e-05,2.4519555154256523e-05,5.121321737533435e-05
-7.60412949603051e-05,1.5681991499150172e-05,7.273217488545924e-05
-2.7569100780056033e-07,-1.661633291405451e-06,8.44110909383744e-05
0.00011892731708940119,-1.148860428656917e-05,7.74563814047724e-05
0.00023226837220136076,-1.1236167665629182e-05,4.921138679492287e-05
0.00026937449001707137,-2.8283918709348654e-06,1.5285686458810233e-05
0.00020340929040685296,4.387835815578001e-06,1.5888593907220638e-06
0.00011727320816135034,2.9190516670496436e-06,2.0906556528643705e-05
8.830403385218233e-05,-2.0245076370883908e-07,5.9773130487883464e-05
0.0001032185391522944,6.403793577192118e-06,7.648179598618299e-05
0.00011247403017478064,1.9204921045457013e-05,4.585942951962352e-05
9.333190973848104e-05,2.451142245263327e-05,-4.7784538992345915e-08
6.209700222825631e-05,1.5029238056740724e-05,-1.0510752872505691e-05
4.12262997997459e-05,-4.5210076677904e-06,1.2257397429493722e-05
1.543936741654761e-05,-1.7986678358283825e-05,3.4674114431254566e-05
-4.0139664633898064e-05,-1.6821677490952425e-05,3.746027869055979e-05
-8.013785554794595e-05,-7.634028406755533e-06,2.6170753699261695e-05
-4.8232956032734364e-05,-2.8933072826475836e-06,1.744289147609379e-05
8.7083662947407e-06,-6.720770670654019e-06,1.1612536582106259e-05
1.7492007827968337e-05,-1.6025931472540833e-05,-2.9147527129680384e-06
1.8310918676434085e-05,-2.584369940450415e-05,-1.060771774064051e-05
7.294675742741674e-05,-3.052290412597358e-05,-3.122957195955678e-06
0.00014853302855044603,-2.80774384009419e-05,-6.6895004238176625e-06
0.0001644320145715028,-1.5330799215007573e-05,-3.1361778383143246e-05
0.00011672614346025512,3.663977622636594e-06,-4.624502980732359e-05
7.015130540821701e-05,1.3590679373010062e-05,-4.440441625774838e-05
2.243624476250261e-05,1.0984017535520252e-05,-4.1517319914419204e-05
-6.315029895631596e-05,3.5300008676131256e-06,-3.811627539107576e-05
-0.00014633512182626873,3.998194188170601e-06,-2.2111797079560347e-05
-0.00020184506138321012,7.120012924133334e-06,-4.08089817938162e-06
-0.00023205188335850835,8.301060006488115e-06,-2.0403583675943082e-06
-0.0002128961932612583,1.042762778524775e-05,-5.064754532213556e-06
-0.00013462828064803034,1.568784318806138e-05,-8.829573744151276e-06
-3.1314972147811204e-05,2.1512840248760767e-05,-9.884370228974149e-07
6.0897527873748913e-05,2.0745163055835292e-05,2.5973191441153176e-05
0.00013783955364488065,5.152645826456137e-06,5.326137397787534e-05
0.0002051459887297824,-1.9392282410990447e-05,6.0811962612206116e-05
0.00026651492225937545,-3.315990761620924e-05,5.980921923764981e-05
0.00029473245376721025,-2.901933476096019e-05,6.581443449249491e-05
0.0002712489222176373,-1.4893184015818406e-05,7.341057789744809e-05
0.00021868644398637116,-5.382034487411147e-06,7.802311301929876e-05
0.00016238223179243505,-3.5061666494584642e-06,8.2683029177133e-05
9.408787445863709e-05,-3.008480007338221e-06,8.266853546956554e-05
1.59185456141131e-05,-1.153054654423613e-06,6.534927524626255e-05
-4.2347553971922025e-05,-5.485861947818194e-06,2.728717117861379e-05
-8.689823880558833e-05,-1.4727173947903793e-05,-4.581620942190057e-06
-0.00012532889377325773,-1.8105389244738035e-05,4.492713287618244e-06
-0.00011692567932186648,-1.1206500857952051e-05,4.166065264143981e-05
-6.037763159838505e-05,-5.620300953523838e-07,6.0896101786056533e-05
2.1966563963360386e-06,4.841050667891977e-06,3.8814734580228105e-05
9.093683183891699e-05,1.4300952670964762e-06,4.982890914106974e-06
0.000208855519304052,-4.061589606862981e-06,1.2407414942572359e-05
0.00028142903465777636,-4.7577314035152085e-06,3.931226092390716e-05
0.00025553081650286913,-2.280065245940932e-06,2.9522958357119933e-05
0.00013657062663696706,-4.968400389770977e-06,-1.6498010154464282e-05
-3.40670085279271e-05,-1.316000270890072e-05,-7.399876631097868e-05
-0.00022164337860886008,-1.3962767297925893e-05,-9.407721518073231e-05
-0.00037811388028785586,-6.556018433911959e-06,-6.944308552192524e-05
-0.0004781736934091896,-4.424245616974076e-06,-4.1911240259651095e-05
-0.0004920511273667216,-6.289022621785989e-06,-3.5322958865435794e-05
-0.0003966631484217942,-6.682171260763425e-06,-3.734872007044032e-05
-0.00024090203805826604,-5.505799435923109e-06,-3.2310348615283147e-05
-9.587978274794295e-05,-4.223546966386493e-06,-2.1506068151211366e-05
1.372935548715759e-05,3.3764874274311296e-07,-7.3658625296957325e-06
9.597751341061667e-05,7.655684385099448e-06,5.062021045887377e-06
0.00013527589908335358,9.259763828595169e-06,1.1236512364121154e-05
0.0001380449830321595,4.306638402340468e-06,1.1361344149918295e-05
0.00014566040772479028,-6.503601639451517e-07,1.1441416972957086e-05
0.00016616274660918862,-4.8067645366245415e-06,1.5743635231046937e-05
0.00014877809735480696,-1.232819431606913e-05,2.0591365682776086e-05
7.54080610931851e-05,-1.7282794942730106e-05,2.0537148884613998e-05
-2.1436855604406446e-05,-1.4336149433802348e-05,2.344155655009672e-05
-0.00010020478657679632,-7.330978405661881e-06,4.0253231418319046e-05
-0.00010316859697923064,-5.120119567436632e-06,6.023531386745162e-05
9.458090062253177e-06,-5.776827492809389e-06,5.552399670705199e-05
0.00013412833504844457,-4.135965355089866e-06,2.241636138933245e-05
0.0001219003097503446,-1.1280864100626786e-06,-3.3031210477929562e-06
-9.844415762927383e-05,-2.626978357511689e-06,1.0636543265718501e-05
-0.0003636911860667169,-7.502701919293031e-06,4.2851228499785066e-05
-0.00046831462532281876,-3.2919222121563507e-06,7.257458491949365e-05
-0.00046701193787157536,1.5296975107048638e-05,8.95588964340277e-05
-0.00043491044198162854,2.8024083803757094e-05,6.290896999416873e-05
-0.0002970680361613631,2.4437740648863837e-05,-1.873424821496883e-06
-2.117339590768097e-06,1.5882342268014327e-05,-2.9231692678877153e-05
0.0003095092542935163,1.152160984929651e-05,1.8641824226506287e-06
0.0004792317340616137,1.0813120752573013e-05,3.377325629116967e-05
0.000484295713249594,7.391643521259539e-06,2.9142347557353787e-05
0.0004081136139575392,2.4271998881886248e-06,-3.9417318475898355e-06
0.00028978544287383556,-1.612900291547703e-06,-3.5007844417123124e-05
0.00015818316023796797,-6.188834504428087e-06,-4.474839079193771e-05
4.955490294378251e-05,-1.4243106306821574e-05,-3.556137016857974e-05
-6.542846676893532e-06,-2.4279266654048115e-05,-2.9735967473243363e-05
-1.3659226169693284e-05,-3.2056879717856646e-05,-3.4954216971527785e-05
6.806381861679256e-06,-3.1559746275888756e-05,-3.781035411520861e-05
4.2182637116638944e-05,-2.316809695912525e-05,-2.7960191800957546e-05
7.607532461406663e-05,-1.3300537830218673e-05,-1.5663514204788953e-05
9.052769019035622e-05,-7.869687578931917e-06,-9.877705451799557e-06
6.0073543863836676e-05,-6.704245151922805e-06,-8.090687515505124e-06
-8.19574950128299e-07,-3.0766723284614272e-06,-6.027495146554429e-06
-5.294659058563411e-05,1.9854292077070568e-06,-2.1636972178384895e-06
-6.51931477477774e-05,5.152450285095256e-06,1.1665681995509658e-05
-4.8981444706441835e-05,1.240032634086674e-05,3.0812745535513386e-05
-2.850624150596559e-05,2.513312028895598e-05,4.3974589061690494e-05
-2.233387203887105e-05,3.5187847970519215e-05,5.3961593948770314e-05
-1.2761786820192356e-05,3.449368159635924e-05,6.598418258363381e-05
-8.680865903443191e-06,2.483012758602854e-05,7.088924758136272e-05
-3.341038609505631e-05,1.398108997818781e-05,6.472758104791865e-05
-9.103243792196736e-05,9.352532288176008e-06,5.683170093107037e-05
-0.00013627579028252512,1.1636844647000544e-05,4.986808562534861e-05
-0.00011895647912751883,1.586636426509358e-05,4.438171163201332e-05
-4.574317063088529e-05,1.8662536604097113e-05,4.361178071121685e-05
5.660647002514452e-05,1.3348966604098678e-05,5.208613583818078e-05
0.00016390689415857196,6.5938734223891515e-06,6.002029113005847e-05
0.00023452090681530535,1.188749502034625e-05,6.135620787972584e-05
0.0002344923123018816,2.139403295586817e-05,5.778755439678207e-05
0.00017600980936549604,1.91898325283546e-05,5.415786290541291e-05
9.45209467317909e-05,6.626528374908958e-06,5.28675336681772e-05
2.1161162294447422e-05,-3.0559169772459427e-06,5.257721568341367e-05
-3.085362914134748e-05,-4.325890586187597e-06,4.86116114188917e-05
-5.805019463878125e-05,-6.744468919350766e-06,2.7014020815840922e-05
-6.251742161111906e-05,-2.2657051886199042e-05,-2.1723590180044994e-05
-3.138210013275966e-05,-4.314786565373652e-05,-6.873806705698371e-05
4.8196066927630454e-05,-4.528257704805583e-05,-6.76197960274294e-05
0.00014394089521374553,-2.23594961425988e-05,-2.356591539864894e-05
0.00018725589325185865,7.657115020265337e-06,5.927024631091626e-06
0.00014739295875187963,2.43000358750578e-05,-5.065150162408827e-06
6.355992809403688e-05,2.3245233023772016e-05,-2.5823863325058483e-05
-7.74858290242264e-06,1.2793508176400792e-05,-3.4465290809748694e-05
-7.81315247877501e-05,2.976387918351975e-07,-5.072075146017596e-05
-0.0001723480672808364,-1.4076447769184597e-05,-9.646610851632431e-05
-0.0002562984300311655,-2.191056228184607e-05,-0.00012335812789388
-0.0002856745559256524,-1.5433035514433868e-05,-9.255862096324563e-05
-0.00024138236767612398,-1.4177627463141107e-06,-4.041040301672183e-05
-0.0001558376825414598,1.0319638931832742e-05,2.168653963963152e-06
-9.015300747705624e-05,1.3661206139659043e-05,2.9327518859645352e-05
-4.079934296896681e-05,4.820300546271028e-06,4.1450119169894606e-05
9.928100553224795e-06,-9.499080078967381e-06,4.5791959564667195e-05
3.340077091706917e-05,-1.2096053069399204e-05,4.678002369473688e-05
-7.586526180602959e-07,-2.7849662274093134e-06,5.082050847704522e-05
-7.792517862981185e-05,1.1141813956783153e-05,6.027473500580527e-05
-0.00017009447037708014,2.0427083654794842e-05,6.078345904825255e-05
-0.00024079768627416342,1.617494854144752e-05,5.397835047915578e-05
-0.00024837147793732584,4.346759851614479e-06,4.890180207439698e-05
-0.00017607559857424349,-4.696791620517615e-06,4.876044113188982e-05
-4.599281237460673e-05,-8.318108484672848e-06,6.101911640143953e-05
7.35508365323767e-05,-1.0660985935828649e-05,7.841971819289029e-05
0.00011417581845307723,-9.837075594987255e-06,8.07964097475633e-05
7.996443309821188e-05,-6.819213467679219e-06,6.14505770499818e-05
4.173875640844926e-05,-5.652766049024649e-06,3.942432158510201e-05
3.939051748602651e-05,-6.452105935750296e-06,3.0478109692921862e-05
4.835005893255584e-05,-7.3176147452613804e-06,2.8415430278982967e-05
4.183383862255141e-05,-9.937458344211336e-06,2.0515335563686676e-05
2.679500357771758e-05,-1.5027934750833083e-05,7.542250841652276e-06
1.4377934348885901e-05,-2.1046131223556586e-05,-2.2424612780014286e-06
1.702041845419444e-05,-2.0554502043523826e-05,-4.032950528198853e-06
2.8731594284181483e-05,-8.076289304881357e-06,-5.9269954277851866e-08
9.430909813090693e-06,8.3250088209752e-06,5.53255267732311e-06
-0.0001107366697397083,1.5934199836920016e-05,1.3970523468742613e-05
-0.00031336804386228323,1.5647576219635084e-05,2.8655245841946453e-05
-0.0004148813895881176,1.9478884496493265e-05,4.729969805339351e-05
-0.0003045007470063865,1.7889129594550468e-05,6.8198140070308e-05
-5.008475636714138e-05,1.0226029189652763e-05,7.046773680485785e-05
0.0002197515859734267,3.622995166097098e-07,3.1869130907580256e-05
0.0003706722054630518,-1.8743470718618482e-05,-3.179536361130886e-05
0.0003437059640418738,-3.120078326901421e-05,-8.400260412599891e-05
0.00019709540356416255,-2.4312621462740935e-05,-9.507896902505308e-05
4.317571801948361e-05,-1.001866166916443e-05,-7.25158242858015e-05
-5.786603651358746e-05,-8.864644769346341e-07,-3.5050710721407086e-05
-8.075402001850307e-05,1.920146814882173e-06,-2.544252538427827e-06
-1.5914325558696873e-05,-4.049265385219769e-07,1.3832347576681059e-05
0.00010223782737739384,-3.522505267028464e-06,1.5016935321909841e-05
0.00022331257059704512,-1.2074401638528798e-06,1.7947993910638615e-05
0.0003123327041976154,5.516345481737517e-06,3.0972663807915524e-05
0.00033826689468696713,9.180665983876679e-06,4.5273249270394444e-05
0.00029305918724276125,8.579358109273016e-06,6.42152299406007e-05
0.00022535989410243928,8.12681537354365e-06,8.847234130371362e-05
0.00018391318735666573,5.077888090454508e-06,0.00010004466457758099
0.00016629010497126728,-1.2279048178243102e-06,9.027763007907197e-05
0.00014277380250860006,-4.911494215775747e-06,7.065466343192384e-05
9.084989142138511e-05,-4.957824785378762e-06,4.7353783884318545e-05
1.7432407730666455e-06,-6.097036020946689e-06,2.4398141249548644e-05
-7.61088595027104e-05,-8.73567842063494e-06,8.81083633430535e-06
-7.662730786250904e-05,-7.824482963769697e-06,1.6154873492268962e-06
-1.3826587746734731e-05,-2.9819370865880046e-06,-8.959635124483611e-06
3.055813067476265e-05,-1.184942789222987e-06,-6.0279221543169115e-06
-4.085994078195654e-06,-4.634210654330673e-06,9.678228707343806e-06
-7.252406066982076e-05,-7.035963790258393e-06,7.719130735495128e-06
-9.351543849334121e-05,-4.064709628437413e-06,-8.44036003400106e-06
-7.635482324985787e-05,3.354337422933895e-06,-2.122218211297877e-05
-7.345000631175935e-05,7.736662155366503e-06,-2.9352335332077928e-05
-9.269351721741259e-05,1.1049116892536404e-06,-3.6296260077506304e-05
-9.140452311839908e-05,-9.847626643022522e-06,-4.032735887449235e-05
-4.22772100137081e-05,-1.2263123608136084e-05,-4.0514183638151735e-05
2.85468759102514e-05,-4.462766355572967e-06,-3.1735209631733596e-05
6.7391105403658e-05,3.741081172847771e-06,-1.3601761565951165e-05
5.976712782285176e-05,6.391808710759506e-06,2.3220666207635077e-06
3.182154250680469e-05,4.669388999900548e-06,1.0291651960869785e-05
-5.722491778215044e-07,1.860999759628612e-06,8.502341188432183e-06
-4.824137795367278e-05,-1.6811059140309226e-06,-4.124197403143626e-06
-0.00011813458695542067,-7.87421413406264e-06,-1.4708867638546508e-05
-0.00017969199689105153,-1.1026449101336766e-05,-7.354932677117176e-06
-0.00017397059127688408,-4.1073435568250716e-06,1.9688728571054526e-05
-8.509128383593634e-05,9.703205250843894e-06,5.176750346436165e-05
2.094421688525472e-05,2.011154720094055e-05,7.669605111004785e-05
7.942494994495064e-05,2.2317084585665725e-05,9.315172064816579e-05
8.501797856297344e-05,1.9815210180240683e-05,0.00010303897579433396
5.546239481191151e-05,1.4750101399840787e-05,0.00010755249240901321
-7.3868864092219155e-06,-2.0759586050189682e-07,0.00010074822057504207
-6.676562770735472e-05,-2.722335557336919e-05,7.778773579047993e-05
-2.7116737328469753e-05,-4.214570435578935e-05,5.614616020466201e-05
0.00011551279021659866,-2.5208588340319693e-05,5.110346683068201e-05
0.00020992557983845472,-1.4486591908280388e-06,5.5011500080581754e-05
0.00013413454871624708,2.3369059363176348e-06,4.796225766767748e-05
-3.8271118683042005e-05,-4.129927219764795e-06,2.3650824005017057e-05
-0.00010095730976900086,-4.424457529239589e-06,5.4330439525074326e-06
-2.442370168864727e-05,-1.6408060332651075e-07,9.572002454660833e-06
6.608208059333265e-05,1.1036329397029476e-06,2.4446548195555806e-05
9.82342244242318e-05,-2.3946704459376633e-06,2.4890083295758814e-05
5.9909001720370725e-05,-6.6145689743279945e-06,2.128139158230624e-06
-2.158984716515988e-05,-8.193886060325895e-06,-2.3134507500799373e-05
-0.00013761255831923336,-5.562839760386851e-06,-3.0396318834391423e-05
-0.000283009692793712,-3.678136636153795e-06,-2.752678483375348e-05
-0.0003675094048958272,-8.00920224719448e-06,-3.0245249945437536e-05
-0.00027560326270759106,-1.2792938832717482e-05,-3.8266425690380856e-05
-6.938276055734605e-05,-1.0322328307665884e-05,-4.411201734910719e-05
7.739865395706147e-05,-1.3294604741531657e-06,-4.131270179641433e-05
8.236879511969164e-05,4.064942004333716e-06,-3.0333867471199483e-05
-1.3184022463974543e-05,3.1656932151236106e-06,-1.7067326552933082e-05
-0.0001246805622940883,2.670258936632308e-06,-1.3736181472268072e-06
-0.0001889217528514564,6.573581686097896e-06,2.1026140530011617e-05
-0.00019434004207141697,8.128666195261758e-06,4.330506271799095e-05
-0.00016217729717027396,6.295033927017357e-06,4.626510781235993e-05
-0.00010200243559665978,8.406858796661254e-06,2.2902389900991693e-05
-4.8230253014480695e-05,1.2353468264336698e-05,-1.4760289559490047e-05
-6.984151696087793e-05,9.454863175051287e-06,-4.278407141100615e-05
-0.00015687456470914185,1.3722851690545212e-06,-1.6258885807474144e-05
-0.0002016975195147097,-4.0215140870714094e-06,7.366751378867775e-05
-0.00016172551841009408,-3.5386303807172226e-06,0.00014981807908043265
-8.327757677761838e-05,-1.0173482678510481e-06,0.00012497800344135612
-4.237793746142415e-06,3.882973487634445e-06,2.845890776370652e-05
-8.218092261813581e-06,1.5344938219641335e-05,1.649525984248612e-05
-9.158196917269379e-05,2.102396683767438e-05,6.574000144610181e-05
-8.898447413230315e-05,9.194892300001811e-06,5.072899875813164e-05
4.691366120823659e-05,-5.33126558366348e-06,6.548470537381945e-06
0.0002256738516734913,-3.574443553588935e-06,-1.8814425857272e-05
0.0003650464059319347,5.526947006728733e-06,-2.1970185116515495e-05
0.0004167201404925436,2.003242343562306e-06,-2.8995973480050452e-05
0.00036253052530810237,-1.5663530575693585e-05,-4.0581919165560976e-05
0.00025799006107263267,-1.982220055651851e-05,-4.807539880857803e-05
0.00018195141456089914,-1.8147977698390605e-06,-4.0936636651167646e-05
0.00017330038826912642,1.636811430216767e-05,-2.11514561669901e-05
0.00020592979853972793,2.0943092749803327e-05,-1.8897278550866758e-06
0.00023545659496448934,1.3122029486112297e-05,8.716455340618268e-06
0.00022400640591513366,-6.8785193434450775e-06,1.33218918563216e-05
0.00012753604096360505,-3.501436731312424e-05,1.5153075764828827e-05
-3.3689917472656816e-05,-5.0491733418311924e-05,8.27252551971469e-06
-0.00013267109170556068,-4.0505590732209384e-05,-5.638327365886653e-06
-7.910470594651997e-05,-1.555099879624322e-05,-2.9219245334388688e-05
3.4844251786125824e-05,1.5939798458930454e-06,-5.9846657677553594e-05
8.752365101827309e-05,-1.3478789924192824e-06,-7.805232598911971e-05
7.949686551000923e-05,-1.4833009117865004e-05,-6.363492138916627e-05
4.937670018989593e-05,-1.9117240299237892e-05,-3.0267021429608576e-05
1.5212735888781026e-05,-1.0460013982083183e-05,-1.282876019104151e-05
2.265001785417553e-05,4.288841637389851e-07,-2.6832527510123327e-05
6.438515265472233e-05,9.425343705515843e-06,-1.9173121472704224e-05
6.73019458190538e-05,1.560873533890117e-05,1.9257433450547978e-05
-3.997253588750027e-05,1.0760165423562285e-05,3.184839806635864e-05
-0.00017355947056785226,-5.792950560135068e-06,-1.8464932054484962e-06
-0.00020525019499473274,-1.7032682080753148e-05,-2.553879858169239e-05
-0.00016356517153326422,-1.1606097359617706e-05,1.1334084319969406e-06
-0.00012079445878043771,3.6912772429786855e-06,4.9038346332963556e-05
-9.421291906619444e-05,1.3713496628042776e-05,6.99418960721232e-05
-7.334704423556104e-05,1.1595476280490402e-05,5.420010711532086e-05
-8.773797162575647e-05,7.1096501415013336e-06,4.3839867430506274e-05
-0.00015735642227809876,6.460186796175549e-06,6.685910193482414e-05
-0.00018622746574692428,6.375325483531924e-06,9.751762263476849e-05
-7.774060213705525e-05,6.14176406088518e-06,0.00010477689647814259
9.578905155649409e-05,6.812302672187798e-06,8.567250915803015e-05
0.00022404688934329897,5.212682935962221e-06,4.864336005994119e-05
0.000276026752544567,2.0812567527173087e-06,1.1078048373747151e-05
0.0002564133028499782,-1.366248966405692e-06,-1.7398402633261867e-05
0.00017586581816431135,-2.824169314408209e-06,-3.315347930765711e-05
0.00011034456838387996,-1.9361609702173155e-06,-3.332234700792469e-05
0.00011459489178378135,-4.1170765143760946e-06,-7.343337529164273e-06
0.00013634469360113144,-1.2772180525644217e-05,3.381782880751416e-05
0.00010773505346151069,-2.3700977180851623e-05,5.4030992032494396e-05
2.4817863959469832e-05,-2.7078172934125178e-05,3.821377322310582e-05
-8.284268551506102e-05,-2.104488157783635e-05,1.2478211829147767e-05
-0.0001983944239327684,-1.721063017612323e-05,-3.5997727536596358e-06
-0.0002864573907572776,-1.9354305550223216e-05,-1.1192982128704898e-05
-0.00031565793324261904,-2.0725537979160435e-05,-1.7985943486564793e-05
-0.00029108807211741805,-2.171181949961465e-05,-2.3524933567387052e-05
-0.0002174279507016763,-1.973152393475175e-05,-2.472412961651571e-05
-9.8708231234923e-05,-1.0632513294694945e-05,-1.9773149688262492e-05
-2.5800723960855976e-05,2.979195869556861e-06,-1.1615939001785591e-05
-3.0701979994773865e-05,1.009538391372189e-05,-8.503906428813934e-06
-5.6221982958959416e-05,7.498188551835483e-06,-5.053839231550228e-07
-7.708612247370183e-05,3.472535354376305e-06,1.5182772585831117e-05
-7.159170490922406e-05,5.2243271966290195e-06,3.489166556391865e-05
-4.09710337407887e-05,5.524745574803092e-06,4.466162863536738e-05
7.249605914694257e-06,-6.065280189204714e-08,4.0592516597826034e-05
4.542037277133204e-05,-7.1571375883650035e-06,3.5204320738557726e-05
4.92072467750404e-05,-6.2251720009953715e-06,3.396972533664666e-05
3.108225791947916e-05,5.1094784794258885e-06,3.1202325772028416e-05
2.7743852115236223e-05,1.7776335880625993e-05,2.353887612116523e-05
4.2637326259864494e-05,2.377063901803922e-05,3.8123900594655424e-05
4.9042937462218106e-05,2.2545811589225195e-05,7.529773574788123e-05
4.424629150889814e-05,2.1389438188634813e-05,0.00010179242235608399
2.952842623926699e-05,2.3303527996176854e-05,0.0001014793524518609
1.0823308002727572e-05,2.5770827051019296e-05,8.180973236449063e-05
3.1266459700418636e-05,1.781367973308079e-05,4.626800000551157e-05
0.0001407537201885134,-2.7947485250479076e-06,5.456123290059622e-06
0.0002771091239992529,-2.0267221771064214e-05,-9.104044693231117e-06
0.0003153210855089128,-1.908179183374159e-05,2.0448194845812395e-05
0.00020116551604587585,-6.090525857871398e-06,6.65437983116135e-05
-6.926939022378065e-06,4.9530385695106816e-06,7.507601549150422e-05
-0.00018654602172318846,8.685720786161255e-06,3.057694993913174e-05
-0.0002580094151198864,6.307582680165069e-06,-4.455388989299536e-05
-0.0002388142456766218,2.1681257749150973e-06,-0.00010989826841978356
-0.00018150749383494258,-3.1139456950768363e-06,-0.00011091365740867332
-0.00012613671424333006,-1.4228986401576549e-05,-5.2727791626239195e-05
-0.0001294276735279709,-2.228380435553845e-05,-2.928564754256513e-06
-0.0002004791604122147,-2.1082330931676552e-05,2.890948780986946e-05
-0.0002788748824968934,-1.71325373230502e-05,4.6518369344994426e-05
-0.00026158581022173166,-8.676925972395111e-06,3.961225593229756e-05
-0.00010487659892532974,-1.8787324052027543e-06,1.9456065274425782e-05
9.063054312719032e-05,1.984912159969099e-06,-5.029874955653213e-06
0.00024547017528675497,4.268531483830884e-06,-1.683790651441086e-05
0.0003159373009111732,3.5205110293645703e-07,-1.227967095474014e-05
0.00026774013531394303,-7.701768481638283e-06,-4.951161827193573e-06
0.00014119649131316692,-1.3403361663222313e-05,-4.45750993094407e-06
4.061955041834153e-05,-1.0248161743220408e-05,9.205252354149707e-06
1.4788866792514455e-05,-4.911290943709901e-06,3.556146111804992e-05
3.795371958403848e-05,-7.395658485620515e-06,4.231823550071567e-05
7.558475772384554e-05,-1.4693963748868555e-05,2.8105774617870338e-05
0.00010299588029738516,-1.3007735105929896e-05,2.7513213353813626e-05
9.782287816051394e-05,1.8471801013220102e-06,4.78001129522454e-05
4.9225669499719515e-05,1.7569518604432233e-05,5.0281818403163925e-05
-2.0298641175031662e-05,2.3156346287578344e-05,9.898504686134402e-06
-8.678469021106139e-05,1.925768629007507e-05,-4.104907202417962e-05
-0.00012309814337641,1.3586033674073406e-05,-4.39308860222809e-05
-0.00012276959023438394,1.1921709301532246e-05,-4.657420504372567e-06
-0.00011023609840776771,1.3317499906406738e-05,2.5369925424456596e-05
-9.946816135197878e-05,1.5281120795407332e-05,2.7282827431918122e-05
-7.448736141668633e-05,2.0025958292535506e-05,2.2310759959509596e-05
-5.607376806437969e-05,2.5846611606539227e-05,4.552748578134924e-05
-6.322129775071517e-05,2.335365570615977e-05,0.00010907730757026002
-6.009353819536045e-05,8.553010047762655e-06,0.00016050762496888638
-1.2071797755197622e-05,-4.736548362416215e-06,0.00013672937348019332
5.625658741337247e-05,-7.661628842470236e-06,7.845535583328456e-05
0.0001225616579176858,-2.0065576791239437e-06,3.8357811718015e-05
0.000232967795454897,6.379266324074706e-06,1.106720264942851e-05
0.0003860830911435187,8.486613296554424e-06,-2.881750333472155e-06
0.0004421589255798608,1.770489006958087e-06,-2.285783011757303e-05
0.0003553201677277684,-9.062792742042802e-06,-5.097973553347401e-05
0.00022844132035970688,-1.6194018826354295e-05,-7.377914880635217e-05
0.00013235182268545032,-1.837462878029328e-05,-8.607663039583713e-05
6.729340384481475e-05,-1.933840394485742e-05,-8.634232654003426e-05
1.75242566911038e-05,-2.122009937011171e-05,-6.970079994061962e-05
-1.8911097868112847e-05,-1.911215622385498e-05,-4.721233563032001e-05
-4.912303847959265e-05,-1.0696418030420318e-05,-2.9171811547712423e-05
-8.047309529501945e-05,-5.815759323013481e-07,-1.7662536265561357e-05
-0.00011886162974406034,8.03122475190321e-06,-1.3960337128082756e-05
-0.00013561690866481513,1.469266317144502e-05,-1.0273588486597873e-05
-8.345214155269787e-05,1.8829114196705632e-05,1.7818067021835304e-07
3.797478711931035e-05,2.002124529099092e-05,1.689269265625626e-05
0.00015071831876412034,1.689316559350118e-05,2.923175270552747e-05
0.0001913637388497591,6.506835688924184e-06,2.5899822503561154e-05
0.00016013998538255692,-6.7141131694370415e-06,1.2133133168390486e-05
6.828227924415842e-05,-7.943458513182122e-06,1.5779398381710052e-05
-6.361216946970671e-05,4.466331574803917e-06,3.77049291273579e-05
-0.00018292796448804438,9.253764801542275e-06,5.7737775932764634e-05
-0.0002392927708569914,-3.680820100271376e-06,6.085234053898603e-05
-0.00021196460875216872,-2.0850957298534922e-05,5.912531560170464e-05
-0.00011332499707350507,-2.2651835024589673e-05,6.220595969352871e-05
-3.158488107146695e-05,-1.0054402082460001e-05,5.772480653831735e-05
-2.4248820409411564e-05,-5.611788651549432e-07,4.427573730936274e-05
-6.646817200817168e-05,-5.080769938103913e-08,4.067410554853268e-05
-0.00012728222645819187,-3.1968543225957546e-06,4.374988202471286e-05
-0.00015720835654065013,-6.528074663947336e-06,4.5031236368231475e-05
-0.0001528085849713534,-7.275642474269262e-06,4.066124893142842e-05
-0.0001291056105401367,-2.6764612357510487e-06,3.3353539038216695e-05
-0.00010226813174085692,1.5361467831098707e-06,3.261596066295169e-05
-8.63888708408922e-05,1.5046623502712464e-07,3.7340159906307235e-05
-8.250003884313628e-05,-1.934994088514941e-06,3.624285091063939e-05
-7.370059029199183e-05,-1.3070728073216742e-06,2.4667111574672163e-05
-5.096773020341061e-05,-2.2447579794970807e-06,7.680591807002202e-06
-2.825451701937709e-05,-6.314000984275481e-06,-8.841740054776892e-06
-1.0291955732100178e-05,-1.0217602721240837e-05,-2.2274081857176498e-05
3.6349349556985544e-06,-1.2383236935420427e-05,-3.739293970284052e-05
1.3913592738390435e-05,-1.2693852113443427e-05,-5.2679170039482415e-05
1.7900389138958417e-05,-1.1858657671837136e-05,-6.030827353242785e-05
2.411260902590584e-05,-7.140266006899765e-06,-5.2528139349306e-05
2.8221082175150514e-05,-5.303080001795024e-07,-3.379301051609218e-05
2.2624735720455647e-05,-6.500433755718404e-07,-1.396053448843304e-05
5.915801921219099e-06,-7.9513474702253e-06,3.8116097584861564e-06
-1.6453181160613894e-05,-1.3546326954383403e-05,1.889394479803741e-05
-3.649989594123326e-05,-9.674452485342044e-06,2.4253648007288575e-05
-6.913491961313412e-05,-2.446696726110531e-06,2.447657061566133e-05
-9.794459765544161e-05,1.1473248662241531e-07,3.200380160706118e-05
-4.477958282222971e-05,1.4577416322936187e-06,5.3933497838443145e-05
7.984042895259336e-05,4.740510121337138e-06,8.659224113216624e-05
0.00015737436478957534,1.109017466660589e-05,0.00011819757492048666
0.00018765577988233417,1.8787219232763164e-05,0.00013029444380663335
0.00019175208581145853,1.8063004972646013e-05,0.00010648280294844881
0.00015384286234620959,8.792429071036167e-06,4.0965609514387324e-05
0.00014845872647129,1.6945891729847062e-06,-1.075599720934406e-05
0.00015257895574904978,-1.0468644404681982e-06,-6.86604471411556e-06
0.0001745635672705248,-3.471550371614285e-06,1.6740359569666907e-05
0.0002317836188012734,-6.855562332930276e-06,3.2154701330000535e-05
0.0002439695381326601,-1.1381899639673065e-05,2.504419353499543e-05
0.00014198149438016117,-1.3680039955943357e-05,2.7352090370413862e-08
-5.978108674753457e-05,-1.0648484021658078e-05,-1.324856566498056e-05
-0.0003158426552545279,-4.970967438566731e-06,-7.695779459027108e-06
-0.0005332861328497529,-3.956862656195881e-06,-1.0412682058813516e-06
-0.000573530443944037,-9.1105512183276e-06,-7.208863621599448e-07
-0.000418606010498479,-1.1355587957950775e-05,-5.648065553032211e-07
-0.00016455438162665814,-6.101694907556521e-06,5.271311692922609e-06
6.168833351694047e-05,-2.5045690108527197e-06,5.551662525249412e-06
0.00015218880434986204,-1.1522054592205677e-05,-1.6435873476439156e-05
6.783993012504652e-05,-2.6538757083471864e-05,-4.902361615677364e-05
-5.842742757522501e-05,-2.62760222540237e-05,-5.7496425142744556e-05
-0.00010568080324446782,-9.900280019792262e-06,-4.0184844692703336e-05
-0.00010055549500975758,2.4609862521174364e-06,-2.7485311875352636e-05
-9.063778270501643e-05,8.673784577695187e-06,-2.091942042170558e-05
-4.4660206185653806e-05,1.3411541658570059e-05,-7.1598492468183395e-06
2.7914064048673026e-05,1.2299890840949956e-05,5.267637789074797e-06
6.64781837258488e-05,5.663315732817864e-06,8.883128430170473e-06
6.882698653498664e-05,-3.2516563805984333e-06,1.2337423868302722e-05
8.122863800963387e-05,-5.794235221401323e-06,1.869898733275477e-05
0.00010056784958578646,-2.0439331365196267e-06,1.8234237359138206e-05
0.00010417842713650316,-8.778043593338225e-06,1.1121755960630253e-05
0.00010800247400766239,-1.6889212929527275e-05,1.401333611283917e-05
0.00013567780843004584,-9.385459634358995e-06,3.3835600333986804e-05
0.00017764953372534364,2.674776851563365e-06,4.7091747546801344e-05
0.00019132053421344608,8.151610018103383e-06,4.640872430172749e-05
0.00015317140787374228,7.443528829753632e-06,4.349856317276135e-05
8.007995347725227e-05,1.6718549886718392e-06,3.740684041986242e-05
1.3035682059125975e-05,-7.64100332162343e-06,2.8088008548365906e-05
-2.1904743334744126e-05,-1.558906296850182e-05,2.1404735889518633e-05
-3.0790117307333276e-05,-1.7025015040417202e-05,1.8647106116986834e-05
-3.9003094570944086e-05,-1.0668391041690484e-05,2.3028069335850887e-05
-5.2347968448884785e-05,-1.3159851732780226e-06,3.3034710213541985e-05
-6.735867646057159e-05,5.411234269558918e-06,3.529255627654493e-05
-8.43560992507264e-05,9.498573490418494e-06,3.0312834496726282e-05
-0.00010502553777769208,1.1472940059320536e-05,3.341507544973865e-05
-0.00012420161510817707,9.43975737754954e-06,4.256486863596365e-05
-0.00013214771752245724,3.513827095957822e-06,4.022628127131611e-05
-0.00011211264063604176,-3.2690704756532796e-06,2.868405863409862e-05
-6.129695975687355e-05,-7.145195468183374e-06,2.437327020743396e-05
1.2424580745573621e-05,-6.160161660773156e-07,2.836692874552682e-05
9.784319263417274e-05,1.1493912097648717e-05,2.1623844077112153e-05
0.0001875644811661914,1.2005971257167403e-05,-1.2070030606992077e-05
0.00030654630973003805,3.3483859169791685e-06,-4.649923721444793e-05
0.00041992985643446445,1.8103683032677509e-06,-3.6827517760684714e-05
0.0004035581659991294,8.545428499928676e-06,7.441164484589535e-07
0.00027970204246230423,1.1723243005690165e-05,9.237847734766547e-06
0.0002082809223793447,7.415291747747688e-06,-1.0516744623600971e-05
0.00019875631551258266,2.7740318486735305e-08,-2.3760110707371496e-05
0.00017125743033830076,-4.3835524365931633e-07,-2.456552829244174e-05
0.0001471784635214135,4.491737854550593e-06,-9.12041105038952e-06
0.00010630075121298432,6.197159564180765e-06,7.75720127421664e-06
-1.1481793990242295e-05,3.832293259620201e-06,9.737626896821894e-06
-0.00016614711785223335,1.725716515466047e-06,-4.661184448195854e-06
-0.0002859967353288084,4.703389095084276e-06,-1.62342403200455e-05
-0.00034791138023138046,6.214882887434214e-06,-9.535756362311076e-06
-0.000360041216481477,-1.4084368160638405e-07,1.22515384646249e-05
-0.0003481500898487866,-9.955914720194414e-06,3.048263897653669e-05
-0.0003078763547819108,-1.2753162081935443e-05,2.837387364706956e-05
-0.00019094443996436894,-1.1351709872542415e-05,1.5929712390061468e-05
-9.27549808693584e-06,-1.1634665497695096e-05,6.629183644690784e-06
0.00013827245857100934,-6.363830834743567e-06,9.387466889165808e-06
0.00017520166875328869,5.557021268032258e-06,2.5278544853790663e-05
0.00012470845831558108,1.2602677088580094e-05,5.029161548009142e-05
5.036315997131169e-05,1.0212591405434068e-05,7.071391883073375e-05
-7.549483598268125e-06,4.666666882258141e-06,8.33217563922517e-05
-3.8512716855620965e-05,1.4082542065807502e-06,8.486521983286366e-05
-2.2063682990847155e-05,-5.623148808808764e-07,8.437603537458926e-05
4.3301864934619516e-05,-8.321286770751612e-08,9.561319166095927e-05
0.0001006585662253201,1.9599744973675115e-06,0.00010958930943161249
7.382831972790882e-05,8.536685527360532e-07,0.00010799089795909822
-8.458408410660923e-05,1.7584626448297058e-06,7.823645864846185e-05
-0.00033726610126905143,5.127693043505133e-07,6.769269475626061e-06
-0.0004642758285626769,-5.690120360668516e-06,-5.683034396497533e-05
-0.00034497081651352346,-1.0450719855725765e-05,-6.140857294667512e-05
-9.987821249524131e-05,-6.16129864283721e-06,-4.138381336815655e-05
0.00015101554163265973,4.977942353434628e-06,-2.2757831175113097e-05
0.0002766487014014274,1.1451411410234869e-05,-1.537286698294338e-05
0.00021800030663143843,1.1084694961027708e-05,-1.8099417502526194e-05
4.4024323869962245e-05,1.215100746776443e-05,-2.0045856217620894e-05
-0.00010725441825343296,1.6795762348920107e-05,-2.2457919840235263e-05
-0.00017365919484291226,5.930161933065392e-06,-2.7321042580297217e-05
-0.0001968822325579822,-1.790901478671003e-05,-2.786708682833705e-05
-0.0001634341897442937,-3.203645974281244e-05,-3.060966992052272e-05
-1.9858158339047804e-05,-2.8321839636191726e-05,-4.2625968490028754e-05
0.0001691275683697313,-1.9693015929078683e-05,-5.1542774599511176e-05
0.0002466955629643053,-1.940007678058464e-05,-4.183874261798337e-05
0.00019601068925112486,-2.5151482986984774e-05,-2.0123086869716644e-05
0.00013556027261074632,-2.9583557989099063e-05,2.5684855700092157e-06
0.00012530508683994412,-2.6301677280571312e-05,2.487016172381118e-05
0.00012289537698961794,-1.6250371118076146e-05,4.068225825903937e-05
8.786881517153233e-05,-4.363947937235935e-06,4.7326127969427034e-05
2.836935527739115e-05,2.7789790237875422e-06,4.932017327519134e-05
-2.040355582266784e-07,4.721588538814103e-06,5.070617044111714e-05
2.762181975413114e-05,3.697054808071698e-06,5.2250848966650665e-05
7.203743734862655e-05,1.792166699488007e-06,4.854568760492839e-05
8.852513565216213e-05,-3.5436698908597464e-06,3.0903349397704005e-05
9.231809963239357e-05,-6.754205969627947e-06,1.0473457223270088e-05
0.00010603600821923465,-2.6343861918576295e-06,9.107275218411814e-06
9.535111166769639e-05,2.2085603177401936e-06,2.729653897404205e-05
7.703390292590484e-05,2.804970108627458e-06,4.3212337914155796e-05
0.00013044950901530683,1.279052384006718e-07,6.017090709065087e-05
0.00018582274788059294,3.0391353789127606e-07,7.174058555392548e-05
0.00011743977665901184,-1.6156245692400262e-06,5.431575118564069e-05
-2.8410113372956403e-05,-7.739336979284417e-06,1.9113886082777753e-05
-0.0001417842140654102,-1.318411341344472e-05,6.794814908062108e-06
-0.00019377421995159239,-1.745324880175758e-05,2.47437710640952e-05
-0.0002225415373686701,-1.7113396097556688e-05,2.8501135602709837e-05
-0.00021822321286890656,-1.034440538205672e-05,-2.1189300696278224e-06
-0.00013866911467630416,-1.9487908957671607e-06,-3.58102006430272e-05
-1.430004613212077e-05,2.1802622995892307e-06,-4.106263804715127e-05
5.237786899670027e-05,-2.439037871226901e-06,-2.616132223920431e-05
1.1166753211000469e-05,-6.511894753202796e-06,-9.140959264186677e-06
-8.152584632625803e-05,-1.843715494942444e-06,-1.6244526705122553e-05
-0.00014768552500754595,8.227513717429247e-06,-7.093151361914352e-05
-0.00017742958152666688,1.5757515939185396e-05,-0.00013480008055921644
-0.0001925213582580909,1.730780968500767e-05,-0.00012872258957941085
-0.0001954193867277354,1.4016299246577546e-05,-4.887740942649543e-05
-0.00016836836584843695,8.566985343350098e-06,3.333714630571194e-05
-6.38194615021348e-05,1.9272611098131165e-06,7.196957449195907e-05
0.00012284981494303793,-2.0578720523189986e-06,7.106528937583789e-05
0.00028131529688835144,7.759226718917489e-06,5.138605774845928e-05
0.00032743398332968354,2.438879346300382e-05,3.64133738912642e-05
0.00029421967337839305,3.149439362459816e-05,3.3932694350369275e-05
0.00020646207849495113,2.9424758395180106e-05,3.642723459051922e-05
8.232840627897531e-05,2.6212394004687667e-05,4.8581230657873675e-05
-3.266742351115681e-05,2.2093201550887898e-05,6.330449105007574e-05
-0.0001134006743086502,1.2739425983454566e-05,5.209177470533177e-05
-0.00012696799240075052,-5.08780021846178e-06,1.1793827070505358e-05
-0.00011009271838702261,-1.8876084141083993e-05,-2.4820506951073185e-05
-9.355263318866491e-05,-1.7624808606342413e-05,-1.5674522728659213e-05
-3.6306930269347504e-05,-6.404262876458233e-06,3.609636769397184e-05
8.062000915742829e-07,-1.655441451475781e-06,7.681795250391588e-05
-1.951266312971711e-05,-8.378271559195127e-06,8.28667325549759e-05
-5.9888574469368905e-05,-1.7873620890895836e-05,6.196422327775508e-05
-9.6190779004246e-05,-2.685914842004422e-05,3.483651016722433e-05
-0.00011422405805205926,-3.1759653211338446e-05,1.5175151929724962e-05
-9.392730862600729e-05,-2.7406706067267805e-05,4.229102160024922e-06
-4.6741814003326e-05,-1.2659646017709747e-05,3.9630240280530415e-06
-9.160589797829743e-06,7.653273314645048e-06,1.5853807781240903e-05
-5.956273071205942e-06,2.3842074369895272e-05,2.966199826914817e-05
-3.785680382861756e-05,2.5088580514420755e-05,3.241455851821229e-05
-7.604554411955178e-05,1.0706128705351148e-05,1.7683743863017298e-05
-9.097099245991558e-05,-3.7966217405482894e-06,-1.0240374876957503e-06
-8.354856981895864e-05,-2.860395625248202e-06,-6.898465017002309e-06
-7.202902634162456e-05,9.375356057717e-06,-1.3226279406808317e-05
-5.0376173021504655e-05,1.5287036148947664e-05,-2.5915089281625114e-05
-3.078805093537085e-05,5.027546649216674e-06,-4.211158011457883e-05
-2.338893318665214e-05,-8.27492112875916e-06,-5.73490651731845e-05
2.336030411242973e-05,-1.197331766888965e-05,-5.92660580878146e-05
0.0001292635133722797,-1.6400177628383972e-05,-4.8185582272708416e-05
0.00021601312619168311,-2.360316284466535e-05,-2.3645012333872728e-05
0.00020445910922717303,-2.3723343474557623e-05,1.4997991456766613e-05
8.435999188804999e-05,-1.7275975551456213e-05,3.858608033624478e-05
-5.855214112671092e-05,-6.6262928157811984e-06,2.9030401492491364e-05
-0.00014150819333735853,3.003613755936385e-06,1.7924632629728876e-05
-0.0001399795146426186,8.372545380552765e-06,2.0867026250925846e-05
-0.0001019137489493005,8.649731171317399e-06,2.1274407117743976e-05
-5.617713031824678e-05,4.055886620335514e-06,2.4641154595883563e-05
-7.475048732885625e-06,4.5646487478734343e-07,3.6582703614840284e-05
-1.98536167772545e-06,3.3114465622929856e-06,5.495614459505305e-05
-1.2764775419782382e-05,1.0465085324540269e-05,7.19567178748548e-05
3.514702257234603e-05,1.5516958228545263e-05,8.029427408473566e-05
0.0001368741359328851,1.1663771147141233e-05,7.510319846915081e-05
0.00021690370340365916,1.449520027563267e-06,6.116681470302865e-05
0.00023788292310200632,-7.748966709186789e-06,4.559355875244364e-05
0.00020035468332935125,-1.2019766472803894e-05,3.152104181936011e-05
0.00013432088599074632,-1.203945248562377e-05,2.0440937078092247e-05
6.989252142375335e-05,-8.328443072969094e-06,1.7552618373883888e-05
1.379830064252019e-05,-1.0181923926211311e-06,2.7176753064850345e-05
-2.7313013561069965e-05,6.948569989617681e-06,4.7808011004235595e-05
-5.659125963575207e-05,1.438664457964478e-05,6.634803139604628e-05
-0.00011226740025449544,1.7681391909718513e-05,5.929508915869519e-05
-0.00017336073506157845,1.4706867659697309e-05,2.6811525458469987e-05
-0.00013711696374230087,1.0084044333780184e-05,-5.554255949391518e-06
1.1051174624299165e-05,1.0164151717617642e-05,-1.7726853911881335e-05
0.00017719727475196123,8.77929232956376e-06,-1.3150297490938101e-05
0.00028559507336467505,-4.112742317374796e-06,4.521172741078772e-06
0.0002893575292546302,-1.8720818843576126e-05,2.2879654352436773e-05
0.0002158021816285327,-2.198506990680471e-05,3.496519639156759e-05
0.00015645021630916744,-1.1630683729890734e-05,3.901166201103479e-05
0.00012374634388834238,-7.320080044337374e-07,2.2244586943998e-05
9.556581062497571e-05,-1.9387048268981744e-06,-7.26474081602646e-06
4.434487345861271e-05,-7.668682883377187e-06,-4.0588238334748894e-05
-3.381231726962142e-05,-1.0471894711372443e-05,-6.464520265581086e-05
-9.349590982310474e-05,-8.300428817165084e-06,-5.969248013570905e-05
-8.977547258837149e-05,-5.693432740372373e-06,-3.085563002969138e-05
-2.7640609914669767e-05,-2.203842541348422e-06,3.804974085142021e-06
3.716841456480324e-05,2.913188268394151e-07,1.6493249859195203e-05
4.628795068128966e-05,2.3631464785012213e-07,3.606202653827495e-06
-5.232041985436808e-06,-7.177235374911106e-07,-9.092258892451355e-07
-5.3304371249396354e-05,1.3559367744164774e-06,2.8772230507456698e-05
-6.136178853921592e-05,4.111526322958525e-06,6.066366768209264e-05
-6.618072802666575e-05,-9.440615826861176e-07,5.174925900064409e-05
-9.602228965377435e-05,-1.2331886864558328e-05,1.4708698472531978e-05
-9.879134449874982e-05,-2.028031121881213e-05,3.2877387639018707e-06
-3.054244371014647e-05,-1.6806441635708325e-05,3.43764440913219e-05
6.619853229494765e-05,-4.835683284909464e-06,7.511008880101144e-05
0.00012513893307186663,6.1578107306559104e-06,0.00010170226596528664
0.00012707353744190186,8.632802746433299e-06,0.00011453215120127425
7.520899816881865e-05,5.749498086515814e-06,0.00010950842988677323
-2.7240352210355923e-05,4.42511964138248e-06,8.13762380857952e-05
-0.00014602781448047608,5.972342933091568e-06,4.749686922878027e-05
-0.00020699189917650074,6.6644474827626254e-06,3.455184196354821e-05
-0.00014756276505067945,4.8631713980284985e-06,3.9732884033583105e-05
-2.9924307455075905e-05,-3.11188273371954e-06,2.1259560526232235e-05
4.50478692073375e-05,-1.0742858648882248e-05,-1.572994915477466e-05
6.379654223565012e-05,-1.0212464985670522e-05,-2.535524981794879e-05
1.163026627182262e-05,-6.5706867644621525e-06,-1.1823893146356568e-05
-0.00010824012133525684,-9.520023922959808e-06,-2.5394310796400532e-05
-0.00023671454982832074,-1.520895693829516e-05,-7.060810457915068e-05
-0.0003108365635853261,-1.7470052625867538e-05,-0.00010066373943118379
-0.00029059345251880586,-1.5952673493302427e-05,-9.107404912356287e-05
-0.00019028350652661175,-1.3984024917590432e-05,-5.864326885784976e-05
-8.544581214664504e-05,-1.6002479242160916e-05,-2.6782930945046246e-05
-3.3207619708264247e-05,-1.8010554413194768e-05,-6.832902272435604e-06
-3.0141685783746652e-05,-1.3479741028277203e-05,-9.100628631131258e-06
-3.727317744051106e-05,-2.213909965576022e-06,-2.3932781914481893e-05
-2.3999074983294122e-05,7.510164778068429e-06,-2.8303380531724542e-05
-3.3441690447943984e-06,1.0163539627683349e-05,-1.9110269931843504e-05
-6.848608791187871e-06,5.000722467229934e-06,-1.1721193004632369e-05
-3.6627548979595304e-05,-6.009141770846327e-07,-1.287717623199569e-05
-5.67058777960483e-05,1.969380946320598e-06,-5.570932898990577e-06
-3.3634230931056663e-05,9.371210580866318e-06,2.2468271708930843e-05
3.7797290133312345e-05,1.052941479429137e-05,5.9201014664722607e-05
0.000115966446173843,4.529187663138146e-06,8.057937520788983e-05
0.00013595097698271275,-1.1562617601157399e-06,7.600206299684942e-05
7.123373507056385e-05,-1.9800595509877894e-06,6.239389040274546e-05
-2.587035487522371e-05,4.715666364063509e-07,6.0965561715420336e-05
-7.465761882485822e-05,4.5682277232117485e-06,7.390581595245749e-05
1.0886841664614622e-05,7.63783828006126e-06,9.308141306973994e-05
0.00020632254017982632,7.0424089244625065e-06,9.116841101786122e-05
0.0003272678004577756,3.1628096621716395e-06,4.0064533095574006e-05
0.00030488401534967124,-1.4629664519816288e-06,-5.3380340432340745e-06
0.00018106178322341293,-1.8656542124517728e-06,1.9205655917176045e-05
-1.6650032193865627e-05,4.012693352706265e-06,6.0418580687837675e-05
-0.00019551759760361165,6.185288384585874e-06,6.482498429249972e-05
-0.00025611533783376217,6.665883915957238e-07,4.987003921996802e-05
-0.00019237639207858592,4.471410477435711e-07,4.507850098889321e-05
-7.42239280953072e-05,7.844267202017363e-06,6.0570164350792766e-05
7.25631207387778e-06,1.2407545909809414e-05,8.271458500530571e-05
3.782567091548117e-06,2.9763489237666363e-06,7.16091672074981e-05
-3.300408206996508e-05,-1.006276852422161e-05,1.3074146409053355e-05
-4.138634176342748e-05,-1.6170195522136055e-05,-4.860337503487244e-05
-4.70653594675241e-06,-1.5781075489940122e-05,-7.779838779242709e-05
4.3121799535583705e-05,-1.0470183951838408e-05,-6.794993532821536e-05
3.546638981788419e-05,-5.5974223869270645e-06,-4.573811384034343e-05
-2.497320565453265e-05,-1.8698344774747966e-06,-4.016115781269036e-05
-5.9081816289108247e-05,-1.4638941365774372e-06,-5.550111745833419e-05
-3.5379649489186704e-05,-1.0940101446976769e-06,-7.085597462719306e-05
1.6918191249715164e-05,1.3263767186799669e-06,-6.76581694278866e-05
7.564072438981384e-05,2.220212081738282e-06,-4.455963789951056e-05
0.00010460752673679963,-1.5017253929272556e-07,-1.4710590221511666e-05
7.050162821542472e-05,-9.700462442197022e-07,7.999658009794075e-06
3.2646992622176185e-05,1.708631089059054e-06,1.8852446373784915e-05
8.211559179471806e-05,4.631813226296799e-06,2.748399492702447e-05
0.00019551996956579387,2.719782969506923e-06,4.029002593597397e-05
0.0002848078729584813,-4.49222397946869e-06,3.738539817277342e-05
0.0002659811871126294,-1.168798826256534e-05,3.0464168958133087e-05
0.00012959602463524789,-1.4967883544159122e-05,4.834397986996919e-05
-1.4072377325646812e-06,-1.3970236068416853e-05,6.206289981491864e-05
-2.0781593775609508e-05,-8.426728527410887e-06,4.596645158017054e-05
2.6009280190919526e-05,-1.5858780670896522e-06,4.5053402573103085e-05
4.544946932583116e-05,-1.2967060456503532e-06,7.012995047261938e-05
2.246002622996457e-05,-5.011087068851339e-06,7.509033457608894e-05
1.123695165006211e-05,-8.794081622909289e-06,5.34687569597736e-05
3.851342262350954e-05,-9.702193892735522e-06,4.018873369204812e-05
7.203451241366565e-05,-9.882101949187927e-06,4.007265670225024e-05
7.147529686335474e-05,-1.0407145964563824e-05,3.730569005711004e-05
3.893711618729867e-05,-5.640734343614895e-06,3.406611722311936e-05
-8.652208634885028e-06,2.115815505021601e-06,3.412220030440949e-05
-5.315222006174736e-05,5.493393018696224e-06,4.48354912805371e-05
-7.001267658779398e-05,4.397589691507164e-06,6.316382496152073e-05
-2.156691516574938e-05,6.181226126500405e-06,8.249335951404646e-05
8.775108290137723e-05,9.845474778558128e-06,9.31514659896493e-05
0.00014926702715456486,1.1747274584195111e-05,6.635938916588202e-05
9.858403791440651e-05,1.2913631508126855e-05,-8.210938062802597e-07
3.4558943298179656e-05,1.712260564090684e-05,-4.585801434586756e-05
3.784659566008486e-05,2.3690934540354647e-05,-2.8094666049582884e-05
2.816874075506348e-05,2.639819467731286e-05,-2.2671997612633277e-06
-6.265073898248374e-05,1.7948716049431823e-05,-2.5846862627076916e-05
-0.0001698080013738945,-3.778448558477976e-07,-7.672132778679952e-05
-0.00021386910520959646,-1.617036286916118e-05,-0.00010526054393267259
-0.00019862179760821164,-2.419166594336275e-05,-0.00010579337686067447
-0.00016471464186906815,-2.7151407266501337e-05,-9.267307905247435e-05
-0.0001287792983930558,-2.5468070816714317e-05,-7.906337850727141e-05
-8.349185372935608e-05,-1.8355309293838218e-05,-6.751180626451969e-05
-2.3778748072800227e-05,-8.578213964938186e-06,-3.937575820600614e-05
3.950202153646387e-05,-2.395693627477158e-06,-8.28593965707114e-06
5.077539026387967e-05,2.115587221851456e-06,-1.1239980267419014e-05
3.226801254641032e-06,1.3159101399651263e-05,-2.0103203496546485e-05
-7.307413034141064e-05,2.0471083189477213e-05,-3.528191200530273e-06
-0.00013923787628300488,9.316191608377267e-06,2.7181338737136684e-05
-0.0001408213283866644,-1.0258421752951108e-05,5.197398422751576e-05
-0.00011018296936526895,-1.2851492101617623e-05,6.532947736559436e-05
-9.869921632343903e-05,-1.7354982446704526e-06,7.018379983492196e-05
-9.728467557579279e-05,5.113151928526349e-06,6.56977717881091e-05
-7.473866571672261e-05,5.990279078105232e-06,6.930193194421008e-05
-4.064990935148671e-05,4.597153292706935e-06,8.113194053294137e-05
-1.8790467947837897e-05,1.8011329530054354e-06,8.611303201178089e-05
-1.37023253046209e-05,-4.1185490573525385e-08,7.496165198972449e-05
-2.2318679839372635e-05,-2.5801662673075043e-07,6.0152866353746504e-05
-2.931122071458958e-05,-1.120048068514734e-06,4.5138753193896264e-05
-1.854149013524875e-05,-1.2473417427827371e-06,2.6583444196148776e-05
5.5380278354277834e-06,-1.5709501610672305e-07,1.3521058463084046e-05
2.065061744360719e-05,1.5942639208788023e-07,5.613529538095463e-06
1.6551326552871615e-05,-2.3257673547050217e-06,-7.705877578700893e-06
5.085235898150131e-06,-5.6758904065645766e-06,-2.418115036562085e-05
2.6199917556368746e-05,-8.087466994766146e-06,-3.4027998481178656e-05
9.019316348712891e-05,-1.6016782637962024e-06,-3.898192153428681e-05
0.00013181421672925353,1.1062234079872724e-05,-3.5958801163360476e-05
0.0001049919446813874,1.4691584510728717e-05,-2.6459829314262606e-05
4.1486960981274024e-05,1.04888013083837e-05,-1.9928535039070994e-05
2.4928975108196028e-05,7.362314590864116e-06,-3.284174817963503e-05
0.00012550335668493062,2.4085509267024463e-06,-4.945431646774523e-05
0.000257211911957711,-6.114691586844856e-06,-1.860296106315218e-05
0.0002502554270904511,-9.995553227781784e-06,2.560088614700362e-05
0.0001532956084702164,-2.5635308702476323e-06,3.768706665141508e-05
5.413033068180084e-05,1.1722358976840042e-05,3.366014061612077e-05
-5.7625118643045425e-05,1.6059331755968742e-05,1.0015775842475705e-05
-0.0001314074033871293,7.38397511668154e-06,-3.743673369172029e-05
-0.00016984717512968928,-1.6812263083920698e-06,-6.328968447633088e-05
-0.000219065259443596,-3.5355349154997384e-06,-2.6038078431156464e-05
-0.0002674701972864568,-3.0446819891949417e-06,2.2419742890633643e-05
-0.0002649423840921372,-5.627960035781143e-06,4.0846185584086925e-05
-0.0002287296374561265,-5.047000286140246e-06,3.5690671211341396e-05
-0.00017756124725565314,-3.8828008541713643e-07,3.736616054084152e-05
-8.499394607497379e-05,3.6409314816410188e-06,5.367768608266488e-05
4.4469783460954204e-05,5.035276444687042e-06,7.394969725282863e-05
0.00013904472871217877,3.92886340705445e-06,8.639621228212491e-05
0.00015713434549979866,1.5011861478342325e-06,8.09582052170299e-05
0.00014191669470164925,-1.8512894257582957e-06,6.53962415526621e-05
0.0001525498810224235,-1.1150246791657992e-05,5.843043254571967e-05
0.00018215557793155313,-3.0068134947214276e-05,6.647915142821148e-05
0.00018148728122469038,-4.605332651408389e-05,6.728252628818154e-05
0.00015855034871492535,-3.8357342418748885e-05,5.5202650401042774e-05
0.00013331060472410172,-6.602635494346032e-06,4.7165860451059416e-05
9.402252908330411e-05,2.5060238840524107e-05,4.466295649763197e-05
3.9602888136869296e-05,3.202729931217618e-05,2.0126966774114408e-05
1.4356139217852615e-05,1.2752559086948168e-05,-3.447819108259864e-05
1.7156045942101628e-05,-9.30692840483971e-06,-0.00010072132863570005
2.3036905986373313e-05,-1.946124029927887e-05,-0.0001381225447403267
3.474070763331838e-05,-1.4930150427971967e-05,-0.00011334171722410247
4.756959242513403e-05,-3.365304905855737e-07,-4.110306326765567e-05
7.508284761570394e-05,5.944822532910621e-06,2.3009031792753376e-05
0.00010645461588865146,-3.480913335351943e-07,5.7130626373691484e-05
6.915793346706778e-05,-1.843565405579284e-05,6.480221054516733e-05
-1.8314945918973535e-05,-3.8777208828832954e-05,5.01818249176722e-05
-9.425081952940673e-05,-3.866338374791667e-05,1.0882868082262576e-05
-0.0001404784561600536,-2.6499512387090363e-05,-3.936504799639806e-05
-0.00015180750051513314,-1.897972651931923e-05,-7.370929961325601e-05
-0.00011604157771216705,-1.1473013728391379e-05,-6.482216849690303e-05
-5.557903932640329e-05,-2.9818022539984668e-06,-2.1158537492738105e-05
-6.542372375406558e-06,-3.5982027384307003e-06,1.7327834939351305e-05
1.1701436960720457e-05,-1.0665361514838878e-05,2.4782611944829114e-05
3.475715402601054e-06,-1.0032589671027381e-05,8.098119906208012e-06
-1.0350380108548052e-07,2.887412165364367e-06,-1.2011129228994832e-06
7.158986591093708e-06,2.32699003390735e-05,1.3457018212648109e-05
1.3307518429428455e-06,4.194373468635604e-05,4.077940684510395e-05
-2.257355663459748e-05,4.709087443188764e-05,5.5572927522007376e-05
-2.2412408725358546e-05,3.625080353231169e-05,5.459208841784857e-05
3.971961632487364e-05,2.131110340997111e-05,5.178746869205497e-05
0.00015082753088790923,1.5205750059976708e-05,6.183400546433404e-05
0.00024133380793500692,1.7833719539339654e-05,7.335555710596964e-05
0.000266324874246493,1.8979890228365548e-05,7.239471597131342e-05
0.00020680754096247256,1.4646049748989753e-05,6.280519301071763e-05
3.735597420018166e-05,4.8979295570461545e-06,5.2127936214674264e-05
-0.00021942089369986206,-2.988466121678357e-06,4.81061106256675e-05
-0.00043139158515259624,-3.991560333815869e-06,5.7265096984338015e-05
-0.0004504206881392747,-5.489104296430014e-06,6.739084346918389e-05
-0.0002687147643882781,-2.3029344902170124e-06,6.822471914347261e-05
-2.021121690631844e-05,1.0480259334144648e-05,6.0236136050662026e-05
0.00011907124280696735,2.1818488676217385e-05,4.415011790115386e-05
4.3477204599184915e-05,1.9588012946769595e-05,2.6778914616443217e-05
-0.00011116541281808168,8.449894266959745e-06,1.384159713779809e-05
-0.00016352477541659027,-7.669164574508613e-07,-3.6232927413948346e-06
-9.437720291316509e-05,-1.000934025796596e-05,-2.701875018829014e-05
3.5976179788121954e-05,-1.798129960661754e-05,-5.495928417076357e-05
0.0001191163610201329,-2.1671792637789622e-05,-7.052586443023756e-05
9.872412192635238e-05,-2.469081482558977e-05,-7.497500337194651e-05
4.154414273216389e-05,-2.8461943657021038e-05,-8.139129204209894e-05
5.928809514443856e-06,-2.414471236988902e-05,-7.940857904031873e-05
-4.5312426664168015e-05,-1.0713966730691027e-05,-5.4639756854157895e-05
-0.00012465953477658331,-2.7469100132293534e-06,-2.7801968826679513e-05
-0.00015154709399212152,-3.4176314329670276e-06,-3.6518023989629e-05
-6.366470188368112e-05,-2.086844460791326e-06,-6.244073301786557e-05
6.833476072642952e-05,3.2243756322714034e-06,-6.051997479517013e-05
0.00014659886073786765,3.8041566767788026e-06,-2.6613906811689958e-05
0.00015285277913790196,-4.55864574178122e-06,6.1959649428899866e-06
9.393185609951615e-05,-1.8946229829452932e-05,1.4877407920721453e-05
-1.4910861864336766e-05,-3.0463019356830046e-05,-2.670948788363603e-06
-8.190990047296509e-05,-2.9265776902320795e-05,-1.3541347470891196e-05
-9.806615707930177e-06,-1.536051058792509e-05,3.824794930551434e-06
0.00015023046580608934,6.240857715056336e-07,2.962597500300035e-05
0.0002627891080919653,8.994587005872745e-06,3.867156192427501e-05
0.0002747315738815814,7.5635011853592005e-06,2.824752482410986e-05
0.00020374858286231756,5.464888090500608e-06,1.0417253179184627e-05
0.0001022556098178029,6.4612372625560965e-06,1.1836787052743603e-05
3.1520630727754906e-05,6.023257355991518e-06,4.601042746799067e-05
2.5373270545969717e-05,8.629210242361296e-06,8.824199176160619e-05
3.682891474454664e-05,1.0911873687291518e-05,9.354398207506165e-05
8.87995952325582e-07,7.693411134823691e-06,6.649622810073197e-05
-6.129079702077433e-05,-1.909581214931677e-06,4.671251372201368e-05
-0.00011242401524214074,-1.370993322780123e-05,4.5114495151210576e-05
-0.00014042973634786904,-1.6601656170678325e-05,3.9272901631193236e-05
-0.00015647345571778715,-9.833335752773564e-06,1.3190704521548469e-05
-0.0001472404255764559,6.11051291343756e-07,-1.0172622751269955e-05
-9.937262075254694e-05,6.852844308014028e-06,-7.91706952441018e-06
-3.5163568099960685e-05,3.5013456454180414e-06,1.3374245099839754e-05
2.2445161448558792e-05,-3.0684775538247777e-06,3.4006534406216815e-05
6.645876419497654e-05,-3.3472861105110496e-06,3.921318784705363e-05
7.741824083495885e-05,-8.68390372943395e-07,2.2100162823335268e-05
4.4168526073917747e-05,-5.2610198508773465e-06,-4.621468178811483e-06
-5.236778633843642e-06,-1.3550785297411494e-05,-2.3328117094933987e-05
-4.4475262257037684e-05,-1.8500324586057104e-05,-2.6909305233857594e-05
-5.3073414164828137e-05,-1.9977342162746936e-05,-3.242809179937467e-05
4.1332864384457935e-06,-1.842002347984817e-05,-4.908514893031679e-05
0.00010735794057836756,-9.20521324587753e-06,-5.049022729508579e-05
0.00015500892186537385,3.277998303019558e-06,-1.866580714704469e-05
0.00011329190601827577,3.299798891021055e-06,2.585955553513486e-05
4.34447247243952e-05,-3.6978090065531433e-06,5.203660475672223e-05
-1.5587216694257222e-05,-7.319377459680254e-07,5.689337194780819e-05
-6.709568697260693e-05,8.737784810364246e-06,5.283617429086007e-05
-0.00010932749137282372,1.4843837561784312e-05,3.959444075007923e-05
-7.745512994006276e-05,1.3672542081621941e-05,3.9063776057446375e-05
4.8669557145331055e-05,1.0547864803811535e-05,6.392483919626102e-05
0.00012072682147845626,5.1197880566178355e-06,7.846708467695862e-05
6.151576963020489e-05,-6.403501174645498e-06,4.616866499418393e-05
-4.1983228584285825e-05,-1.2781500117853284e-05,9.075074558495544e-06
-0.00012678818893618882,-8.58901967148995e-06,1.7844837202574126e-05
-0.00020415433391463012,-2.78273347475988e-07,5.227927613304928e-05
-0.00029099767562001944,4.049693870911142e-06,7.666985038667917e-05
-0.0003640343784354627,2.3902214252302656e-06,7.161417306633666e-05
-0.0003613790322560817,-4.538581379165407e-06,6.998750905040652e-05
-0.0002591871889308095,-9.14786596695194e-06,7.850937981856987e-05
-0.0001172933989437297,-6.170076630951371e-06,6.839068373665214e-05
-3.126239971606992e-05,2.23517508857185e-06,3.947935329051688e-05
-2.641376522660721e-05,7.756856575724669e-06,1.1143421033921186e-05
-1.5711068044765852e-05,3.5801713238470256e-06,-2.8010801997879753e-06
5.6891341955633834e-05,-5.361819603422191e-06,1.4862611124044633e-06
0.00011796702892752364,-1.0786826351250056e-05,1.735678051772993e-05
9.669047722127289e-05,-5.713241989724338e-06,2.906770896515809e-05
3.087789082201198e-05,7.559556706837611e-06,3.2203199225477874e-05
-2.335743192816153e-05,1.3084486454317812e-05,2.3144122678786516e-05
-5.585928010987118e-05,6.523805041069863e-06,-6.5860308495757636e-06
-6.308468437055126e-05,7.717692938058462e-07,-4.928945782012306e-05
-2.255046092614066e-05,-2.7412522740632994e-06,-7.414594438159838e-05
6.963011401239783e-05,-8.304153197968844e-06,-8.175689436029643e-05
0.0001545468985568732,-1.3353710528463125e-05,-9.184609371004626e-05
