4.597140105033759e-06,-5.869271717529045e-06,1.6174051779671572e-05
-5.655791483150097e-06,2.3607819343851588e-07,8.258973139163572e-06
-3.514719537633937e-06,3.7831307508895406e-06,-2.1211935745668598e-06
9.38924313231837e-06,1.912402694870252e-06,-1.5841218555578962e-05
1.6685233276803046e-05,-1.4851681271466077e-06,-2.4748251234996133e-05
1.5688876374042593e-05,-2.304175268363906e-06,-2.6751500627142377e-05
7.452866611856734e-06,-1.6248138763330644e-06,-2.7349164156476036e-05
-2.6640893793228315e-06,-2.0112495349167148e-06,-2.983486592711415e-05
8.055042712840077e-07,-3.4767949728120584e-06,-2.7024560040445067e-05
1.3482906069839373e-05,-2.3310203687287867e-06,-2.1278947315295227e-05
1.7122345525422134e-05,5.717657245440932e-07,-1.6371539459214546e-05
1.1950660336879082e-05,3.816242497123312e-06,-1.0329506949346978e-05
3.683648856167565e-06,6.0783931985497475e-06,-3.837842541543068e-06
-6.180028776725521e-06,8.197373063012492e-06,-1.2333614449744346e-06
-1.0268935511703603e-05,8.918183084460907e-06,3.0264537542734615e-08
-3.3475748750788625e-06,6.879878128529526e-06,6.60884188619093e-06
4.287902356736595e-06,4.690656169259455e-06,1.7926473447005264e-05
4.971980615664506e-06,3.4058055007335497e-06,3.0620147299487144e-05
-4.715693648904562e-06,1.4363730542754638e-06,4.074745811522007e-05
-1.746360612742137e-05,-9.55042764871905e-07,5.038618473918177e-05
-1.6183143088710494e-05,-4.4904376750309893e-07,6.336023943731561e-05
-3.764763732760912e-06,1.1305625093882554e-06,7.451471901731566e-05
5.799486757496197e-07,1.1515462574607227e-06,7.92186547187157e-05
4.422392976266565e-07,2.470322044700879e-07,8.141828584484756e-05
1.1495189937704708e-06,-3.3565099784027552e-06,8.802062802715227e-05
-3.2565169476583833e-06,-4.543117938737851e-06,8.284676732728258e-05
-8.22408856038237e-06,-3.380848738743225e-06,5.449194213724695e-05
-1.4170430404192302e-05,-2.3969826088432455e-06,2.3610697098774835e-05
-2.027559639827814e-05,1.2502765400768112e-07,2.6822231120604556e-06
-1.4088496754993685e-05,9.696650522528216e-07,-8.643875844427384e-06
-9.912811265166965e-07,-8.047066444305528e-07,-1.2504649021138903e-05
6.7180462792748585e-06,-4.5961687646922655e-06,-5.343074008123949e-06
1.0455814845045097e-05,-5.133455942996079e-06,3.7381994388852036e-06
8.792374501354061e-06,3.8422084003286727e-07,1.2012276329187443e-06
1.0536700756347273e-06,6.730183486070018e-06,-1.2037140550091863e-05
3.064407749775455e-08,8.38668620417593e-06,-2.1978248696541414e-05
7.266981810971629e-06,5.948109901510179e-06,-2.350219256186392e-05
1.3930163731856737e-05,3.281979161329218e-06,-2.313929689989891e-05
1.8603057469590567e-05,2.6392092422611313e-06,-2.7218340619583614e-05
1.7739641407388262e-05,3.636155724962009e-06,-3.332208143547177e-05
7.817499863449484e-06,5.2623336159740575e-06,-3.227748675271869e-05
1.3196307691032416e-06,6.443286565627204e-06,-2.3594708181917667e-05
1.0951264812320005e-05,6.255923381104367e-06,-1.2679236533585936e-05
2.203202348027844e-05,3.4098318337782985e-06,-2.301769882251392e-06
1.8752962205326185e-05,-2.1971866317471722e-06,8.945505214796867e-06
5.791137937194435e-06,-5.594466074398952e-06,1.5185165466391481e-05
-8.152176633302588e-06,-5.136086201673606e-06,9.773700185178313e-06
-1.15210914373165e-05,-5.338092250894988e-06,-2.423253135930281e-06
-6.265531027338511e-08,-5.99412032897817e-06,-1.86444981409295e-06
9.80494951363653e-06,-8.266655640909448e-06,1.0433500392537098e-05
1.0610738172545098e-05,-1.161947784567019e-05,1.5065053958096541e-05
6.788226073695114e-06,-1.1285718755971175e-05,1.7390331777278334e-05
2.7113783289678395e-06,-4.81989127365523e-06,2.5387036657775752e-05
2.190188752138056e-06,2.8417885005183052e-06,3.534549614414573e-05
-3.641131570475409e-06,4.131117293582065e-06,4.597962833940983e-05
-1.7328085959888995e-05,1.700703592177888e-06,5.7018220104509965e-05
-1.8179802282247692e-05,-2.6447507934790337e-06,6.740665412507951e-05
-6.786742233089171e-06,-8.745094419282395e-06,7.312276284210384e-05
4.019536845589755e-06,-1.2869243619206827e-05,7.172650657594204e-05
8.904155947675463e-06,-1.253565278602764e-05,6.071621828596108e-05
5.796022151116631e-07,-7.461519089702051e-06,4.957800774718635e-05
-1.2698087630269583e-05,-2.0574304926412879e-07,4.047532638651319e-05
-1.4966385606385302e-05,2.7079511255578836e-06,2.9671145966858603e-05
-5.3571311582345515e-06,4.017016408397467e-07,1.3848039088770747e-05
2.8703159387077903e-06,-2.408041837043129e-06,-6.763735882486799e-07
2.7743001282942714e-06,-4.330671345087467e-06,-6.335952548397472e-06
-5.0058488341164775e-06,-6.172255780256819e-06,-8.946020898292772e-06
-1.2256286026968155e-05,-6.354705874400679e-06,-1.3385812053456903e-05
-9.278930519940332e-06,-4.567770247376757e-06,-1.7892898540594615e-05
2.0884785953967366e-06,-2.1363625819503795e-06,-2.0185729226795956e-05
7.675200322410092e-06,2.062839030259056e-06,-2.246239637315739e-05
7.131508937163744e-06,6.420137196982978e-06,-2.0644356482080184e-05
6.1360537984000985e-06,8.21308003651211e-06,-1.3454966392600909e-05
-7.114759910109569e-07,7.0759574555268046e-06,-7.836594704713207e-06
-4.243468083586777e-06,2.791001861623954e-06,-1.1200670087418985e-05
4.908185019303346e-06,-1.6251092347374652e-06,-2.104425038851332e-05
1.62863598234253e-05,-2.9355585411394713e-06,-2.9499655283871107e-05
1.8454273231327534e-05,-1.8478698393664672e-06,-2.770751052594278e-05
1.699481435935013e-05,-1.5340306163125206e-06,-1.2393686120049097e-05
1.5284031178453006e-05,-1.80018116680003e-06,1.2228659329593938e-07
1.5228597476379946e-05,-2.4815793153720733e-07,3.863838628603844e-06
1.2328167031228077e-05,3.451954455613304e-07,8.46764578454895e-06
-4.216051820549183e-06,-2.00579691522762e-07,1.2974736819160171e-05
-1.3690222658624407e-05,-2.2215106127987383e-06,2.285890150233172e-05
-8.202428034564946e-06,-4.100612841284601e-06,3.476084384601563e-05
-4.1801453676271194e-07,-5.568281721934909e-06,4.7783269110368565e-05
5.057334419689141e-06,-6.545183168782387e-06,5.756391692557372e-05
2.672844857443124e-06,-7.389305210381281e-06,6.240054790396243e-05
-5.755570782639552e-06,-1.1101936252089217e-05,6.782491254853085e-05
-6.7883279371017125e-06,-1.30598564282991e-05,7.502514927182347e-05
1.9712254015757935e-06,-1.1678183000185527e-05,7.936900510685518e-05
7.21665310265962e-06,-8.409625479544047e-06,8.11047648312524e-05
7.5492980613489635e-06,-5.583315214607865e-06,7.798006845405325e-05
4.8061797315313015e-06,-4.372921466710977e-06,6.738056254107505e-05
7.291210977200535e-07,-3.881543307215907e-06,5.364653407013975e-05
2.097168817272177e-06,-3.514006493787747e-06,3.5273496905574575e-05
9.913705980579834e-06,-5.099936970509589e-06,1.4720394574396778e-05
1.3786665476800408e-05,-8.096156307146885e-06,-2.8370977815939113e-06
1.4795522474742029e-05,-1.0623208254401106e-05,-1.2494637303461786e-05
1.3751127880823333e-05,-1.1393930435588118e-05,-2.250646321044769e-05
6.766362616872357e-07,-7.631701919308398e-06,-4.302222077967599e-05
-8.341293323610444e-06,-1.5953643242028193e-06,-6.859983113827184e-05
2.201822326242109e-06,2.0533725546556525e-06,-7.573366747237742e-05
1.290750878979452e-05,2.7392727588448906e-06,-6.676043994957581e-05
1.3865953405911569e-05,1.438684620325148e-07,-6.371654308168218e-05
7.080911473167362e-06,-3.0397141017601825e-06,-6.96324059390463e-05
-2.8633207875827793e-06,-4.668289420806104e-06,-6.977833982091397e-05
-3.7724717003584374e-06,-5.268283530313056e-06,-6.255140760913491e-05
-7.358785865108075e-07,-4.845357125304872e-06,-5.006979699828662e-05
-3.992485744674923e-06,-2.4965761440398637e-06,-3.4248645533807576e-05
-1.3584874523075996e-06,7.181773753472953e-07,-1.611652442079503e-05
9.43067243497353e-06,-1.6196295291592833e-06,2.723084435274359e-06
1.2450080248527229e-05,-5.344689270714298e-06,8.830349543131888e-06
8.346692084160168e-06,-6.014135124132736e-06,4.864535185333807e-06
1.24094617603987e-06,-3.899523107975256e-06,2.2018477920937585e-06
-4.9780683184508234e-06,-1.587845758876938e-06,8.971136594482232e-06
-6.793667580495821e-06,2.2997650717115903e-07,2.2974041712586768e-05
-4.817409717361443e-06,8.185527917703439e-07,3.875134279951453e-05
-3.040633146156324e-06,5.523655204342504e-07,5.168249481357634e-05
-2.2164160782267572e-06,-3.8222316334213247e-07,5.7949400797951967e-05
-9.3750486485078e-06,2.3837770868340158e-07,5.818446516059339e-05
-2.4091583327390254e-05,3.593141855162685e-06,5.564235107158311e-05
-2.7972913812845945e-05,5.50709773960989e-06,5.706542287953198e-05
-1.2457713637559209e-05,3.5304444736539153e-06,6.357862002914771e-05
3.4044178391923197e-06,3.5750710480897396e-07,6.876255793031305e-05
6.430208941310411e-06,1.758139546836901e-06,6.852586375316605e-05
4.2631091901057516e-07,5.0973944780707825e-06,6.304352427832782e-05
-1.0339323125663213e-05,6.226275218068622e-06,5.5938591685844585e-05
-1.2892956874566153e-05,5.103373950987589e-06,5.438859443529509e-05
-3.261939582444029e-06,5.176245849725092e-06,6.197024049470201e-05
4.462662218429614e-06,6.726784704369493e-06,7.52721171011217e-05
-1.9638634967122925e-06,5.458633040689165e-06,8.168574277078733e-05
-1.1955342415603809e-05,4.386339242046233e-06,8.26251125545241e-05
-1.3653912901645526e-05,6.623260105698137e-06,8.53802339406684e-05
-6.016524366714293e-06,8.58227849676041e-06,7.293074304470792e-05
-1.3357872603592114e-06,8.273031198768876e-06,3.738931263796985e-05
-4.361646006145747e-06,4.719582193501992e-06,-7.456715593434637e-06
4.750186690216651e-06,1.8673399608815089e-06,-4.052388612763025e-05
2.2197615180630237e-05,-1.164843070000643e-06,-4.329402872826904e-05
2.6793179131345823e-05,-3.78384083887795e-06,-2.770039463939611e-05
1.8252781956107356e-05,-4.3676336645148695e-06,-1.9725699530681595e-05
6.001978817948839e-06,-6.994681598371244e-07,-2.8119480703026056e-05
-4.545398041955195e-06,4.172643457422964e-06,-3.838728298433125e-05
-6.982269951549824e-06,6.011284312990028e-06,-4.044826710014604e-05
9.119226973552941e-08,4.4880534915137105e-06,-4.041611828142777e-05
6.728617336193565e-06,2.476150484653772e-06,-3.734392885235138e-05
8.560576134186704e-06,2.9666946375073167e-06,-3.099493187619373e-05
2.8594599825737532e-06,3.734936626642593e-06,-2.3719898308627307e-05
-1.1488838026707526e-05,3.516642891554511e-06,-1.6507179680047557e-05
-2.3660528313484974e-05,2.233581653854344e-06,-8.45104568725219e-06
-1.9193475964129902e-05,1.469866333536629e-06,1.2995767519896617e-06
-5.393235824158182e-06,-4.2952129319928645e-07,1.436641196050914e-05
3.035005647689104e-06,-2.1699192984669935e-06,2.6749688913696446e-05
1.0239371022180421e-06,-3.645789092843188e-06,3.539482713676989e-05
-9.851802133198362e-06,-6.206043508427683e-06,4.216228626319207e-05
-1.1444817573647015e-05,-7.055607966321986e-06,4.6349447075044736e-05
1.8194517679148703e-06,-5.921252977714175e-06,5.139999484526925e-05
1.1249775525357109e-05,-7.920489224488847e-06,5.7800494687398896e-05
1.1235087185923476e-05,-1.004484965960728e-05,6.23778032604605e-05
7.506060228479328e-06,-8.083174179773778e-06,6.138028402347118e-05
3.890841526299482e-06,-7.790615654812427e-07,5.1955237722722813e-05
5.778187187388539e-06,5.507218247657875e-06,4.571795216179453e-05
2.601779215183342e-06,3.527426997607108e-06,4.9469395889900625e-05
-8.305207302328199e-06,1.1181647323610377e-06,5.0878585170721635e-05
-5.012194833398098e-06,-1.3298451229104558e-08,4.576401988742873e-05
3.6194469430483878e-06,-4.0424179132969584e-06,3.680402733152732e-05
3.835513325611828e-06,-5.893963134440128e-06,2.3308977688429877e-05
2.29362763093377e-06,-3.3636770240264013e-06,9.040269105753396e-06
-4.261291906004772e-06,3.7525214224842784e-07,-5.233890533418162e-06
-1.2660963875532616e-05,2.2238339170144172e-06,-1.6342755770892836e-05
-1.0983946594933514e-05,2.189020733567304e-06,-2.4425988158327527e-05
4.172153239778709e-06,1.022968490360654e-06,-2.909165050368756e-05
1.541457459097728e-05,6.343961445054447e-07,-2.8747333999490365e-05
1.4548591025231872e-05,1.0100420695380308e-06,-2.7905087335966527e-05
3.567504791135434e-06,4.8687638809497e-07,-2.9748644010396674e-05
-9.776429578778334e-06,1.8237737720028235e-07,-3.091506368946284e-05
-1.3494203813024797e-05,6.963210807953146e-07,-2.239681089122314e-05
-4.925368557451293e-06,3.611825718508044e-07,-5.097007942822529e-06
4.42763348473818e-06,-5.411948666989019e-09,1.0406734872958623e-05
8.907720257411711e-06,3.2085455359265325e-07,1.2410936506057624e-05
7.28047416487243e-06,-9.265776412803461e-08,3.7913723645033315e-06
-5.333236458682222e-06,-6.720817680161417e-08,-2.4058608687482774e-06
-1.5887137124082074e-05,1.1275789120190893e-06,2.8536885565699777e-06
-1.1849695511045866e-05,2.974649305542698e-06,1.6666630472172983e-05
1.2975019672012422e-06,2.5380845158906595e-07,3.491322786430828e-05
1.0413496056571603e-05,-7.07815070200013e-06,5.1439637900330126e-05
1.0460524208610877e-05,-1.0853251296794042e-05,5.632093598251231e-05
5.583468464465113e-06,-8.438745680905413e-06,4.5613520342158154e-05
3.69896929441893e-06,-7.828600246284623e-06,3.0458557375823148e-05
-2.858618017853587e-06,-8.250905921158846e-06,2.9537559385062195e-05
-1.5202850590867456e-05,-7.15952637619921e-06,4.3413234379841015e-05
-9.238356142304838e-06,-5.2303671509434935e-06,5.708409662474878e-05
8.02795693743974e-06,-4.126477961108321e-06,5.828919529449195e-05
1.43356119224336e-05,-5.1973433983221184e-06,4.798071313416585e-05
1.0709534763009287e-05,-3.852980626106728e-06,3.8837926695123315e-05
-1.442747361579677e-06,-1.2760580148096778e-07,3.799626210820861e-05
-1.1921150871785358e-05,4.145207640249282e-06,3.733935591299087e-05
-7.604108304803958e-06,5.854247774550458e-06,3.1062387279234827e-05
5.270649126032367e-06,4.621922471415019e-06,2.3756689188303426e-05
9.494091500528157e-06,2.857413619494764e-06,1.8300777810509317e-05
5.461372438730905e-06,2.8276335797272623e-06,1.0840254617505707e-05
2.520266946248739e-07,2.51267692874535e-06,3.442617298787809e-06
-3.651167389762122e-06,1.9358890313014854e-06,1.7948302684089867e-06
-1.6200434629354277e-06,3.1653848964197095e-06,4.255710337019991e-06
9.668233360571321e-06,5.413035523815779e-06,6.004308943374781e-06
1.90661503438605e-05,6.630162715737242e-06,4.479867584450403e-06
2.02863993763458e-05,6.987716005824041e-06,8.350948377255918e-09
1.4645310329797212e-05,9.111199688049965e-06,-6.465971182478825e-06
-5.825036168971565e-07,9.877954653347842e-06,-1.3866599147149827e-05
-6.759355073882034e-06,6.131588634161744e-06,-2.031816984526813e-05
5.100705948279938e-06,-5.039542543272546e-07,-2.4876842871890403e-05
1.6879333998076618e-05,-7.0336532189685386e-06,-2.9934808480902575e-05
2.043589665845502e-05,-1.2371445336611941e-05,-3.793266660068184e-05
1.9662165868794546e-05,-1.4227430256141815e-05,-4.0330261981580406e-05
1.4044975614524446e-05,-1.3444549949781504e-05,-3.105220457655378e-05
1.3325294276000932e-05,-1.3165333257347811e-05,-1.4551284948538523e-05
9.30676469579339e-06,-1.4338133951241616e-05,2.850556938938098e-06
-4.337723112257663e-06,-1.5678882846259512e-05,1.9265566152171232e-05
-7.560954031760048e-07,-1.4786558494961355e-05,3.4715445508481935e-05
1.3552233212976716e-05,-1.1695333341776859e-05,4.532430830295198e-05
1.6052987120929174e-05,-8.934271136240568e-06,5.1608400099212304e-05
9.42912811296992e-06,-9.249284630641341e-06,5.632458851323463e-05
-6.532164888994885e-07,-1.1293326679151505e-05,6.277192005654797e-05
-1.139917458203854e-05,-1.3564351320383139e-05,7.156185165513307e-05
-1.3940048120275605e-05,-1.3932079127698671e-05,7.645200821571052e-05
-6.883975856908364e-06,-1.3559194485424086e-05,7.220396946649998e-05
-3.5560634614739683e-07,-1.3795596714771818e-05,5.954465450486168e-05
-1.1537604223121889e-06,-1.0965787623717915e-05,4.3210686271777377e-05
-7.527354227931937e-06,-5.65888149139937e-06,2.8812904929509386e-05
-1.2199856428196654e-05,-2.9984762477397453e-06,1.8973592887050472e-05
-8.145989340846427e-06,-2.8320901037659496e-06,1.2085246453352738e-05
1.5170684264376177e-06,-2.261520648971782e-06,4.976087438990362e-06
4.935282049700618e-06,-2.284346010128502e-06,-5.189309035813494e-07
1.1841422065117513e-06,-3.2382304198108613e-06,-3.4364529710728675e-06
-6.936535555723822e-06,-4.078001438756473e-06,-1.1523409739311319e-05
-1.6741507351980545e-05,-3.055170282095787e-06,-2.4511451556463726e-05
-1.7755715816747397e-05,-2.3801653696864378e-06,-3.2720447052270174e-05
-4.799712769454345e-06,-2.6450991299498128e-06,-3.5903838579542935e-05
9.048062565852888e-06,4.580791710395715e-07,-4.0661478124093264e-05
1.4690641364722978e-05,4.2827646211662795e-06,-5.1811333833029494e-05
9.959485396393575e-06,3.000618335136096e-06,-6.356139783747494e-05
5.616897169602453e-07,1.0336135574107175e-06,-6.819020200055093e-05
-3.414215598240844e-06,2.109921297233086e-06,-6.29854912403971e-05
-1.0573522558843251e-05,3.475271114439238e-06,-4.660071135731414e-05
-2.24109480768675e-05,2.996523107867688e-06,-2.5774077585083432e-05
-2.1158844901947305e-05,1.399486336595146e-06,-1.027259168040473e-05
-6.4033042690425646e-06,-1.2506362736530718e-06,1.204643467644928e-06
4.036603513668524e-06,-5.093703293823637e-06,1.581899414304644e-05
3.110616262347321e-06,-8.453722330159508e-06,3.123564601992257e-05
-5.482196684170049e-06,-9.067994142242242e-06,4.7962636017473415e-05
-1.3580046470451634e-05,-5.1938623073510826e-06,6.528748053824529e-05
-7.1735230449121445e-06,-1.461366309740697e-06,7.894417649367824e-05
9.780770596989896e-06,3.050854218145105e-07,8.478148083668202e-05
1.9959956262027845e-05,2.680384341147146e-07,7.822902261978015e-05
1.7888429283630103e-05,-2.464470298946253e-06,5.884626807528548e-05
7.803165317454841e-06,-5.989500095893163e-06,4.039835403091274e-05
-1.3987886404720484e-06,-7.009135060798144e-06,3.6645134969148785e-05
-3.5292228517391777e-07,-5.5741152209520806e-06,4.0417413401883096e-05
7.052451564959483e-06,-5.476820206240518e-06,3.9725404349155724e-05
1.0785820450109895e-05,-6.821532224421389e-06,2.987226253026165e-05
1.0754221875686198e-05,-6.428283541026758e-06,1.4882135474181268e-05
4.179973075224552e-06,-2.702479832805693e-06,6.262112037802581e-06
-7.242568699439289e-06,1.2748397892892172e-09,8.349510608240962e-06
-8.442169018962886e-06,-1.215456563841144e-06,1.1772699508583173e-05
4.323152097640559e-06,3.5966405675935675e-07,1.2550800420285668e-05
1.4775248018850107e-05,4.4665284804068506e-06,1.1133310181321576e-05
1.539219192636665e-05,3.964440566051053e-06,1.259507735085208e-05
1.2565433280542493e-05,1.164420382337994e-06,1.0351601304137148e-05
8.979535778053105e-06,1.9787580640695523e-06,-1.0766592595246038e-06
1.070220059773419e-05,6.868294349260395e-06,-6.7335631683818065e-06
1.2129572496633045e-05,1.3156385648471769e-05,-2.1155869944777805e-06
6.6988409344048705e-06,1.5512505342485383e-05,-1.381074866912968e-06
7.090586677804822e-06,1.3367095561989117e-05,-1.5310624803532846e-05
1.147536841017427e-05,1.1163294402649626e-05,-3.237412965972908e-05
1.3688412764167879e-05,9.012632290250622e-06,-3.9751983422320336e-05
1.2460968719096854e-05,7.1656513682683e-06,-3.868641215376556e-05
6.9338129833340645e-06,4.586578597809421e-06,-3.5254157410236076e-05
-2.8460146950237686e-06,1.498783831266337e-06,-3.2581960113020614e-05
-5.08296261614305e-06,-7.114340974112565e-07,-2.8506454327725805e-05
2.5972258299589157e-06,-8.640825512884476e-07,-1.7266162103624083e-05
9.248080459656194e-06,5.67904976378486e-07,-1.7327030263913912e-06
1.094845629268093e-05,1.375134957015689e-06,9.99066287477035e-06
4.773345608555246e-06,1.0473561360413441e-06,1.5437492038472556e-05
-6.77922616887372e-06,7.324092621274758e-07,1.9397435607970692e-05
-1.1012494724127464e-05,-1.3152835265373142e-07,2.8123480660724454e-05
-2.1617195216094842e-06,-1.9005401554750279e-06,4.1071511077461764e-05
6.743925496266456e-06,-3.254985585954273e-06,5.152222729520872e-05
7.675285814912058e-06,-3.150164275211864e-06,5.6562126701464877e-05
1.501162074646345e-07,-1.7798865883378312e-06,6.32842056802474e-05
-1.0962965461658314e-05,-7.168219440245593e-07,7.235232624225318e-05
-1.220278409164166e-05,-2.396521665559703e-07,8.324913505930454e-05
2.2754511519451626e-06,-1.4510261792111123e-07,9.359855903312564e-05
1.4545692465617321e-05,-5.041206350142602e-07,9.208177652908489e-05
1.2779489225067664e-05,-5.002567604606156e-07,7.8792312706355e-05
2.3082338884705678e-06,3.753553983187885e-07,6.730089808115736e-05
-5.0100866246793885e-06,3.3479027479188517e-06,6.305726856226102e-05
4.1625656876931316e-07,6.059094630472828e-06,6.534698331961408e-05
3.080476517425268e-06,5.124990366311977e-06,7.394887506961823e-05
-4.166556664131349e-06,1.8792734408634715e-06,7.544975233031437e-05
-4.674173851526575e-06,-2.0379582110763295e-06,5.7094086514553055e-05
2.2533745323016774e-06,-2.187820427934639e-06,2.161051997973118e-05
1.1764379451051354e-05,3.4099997492376133e-07,-1.565841921546962e-05
1.90018727153074e-05,4.068333964823978e-06,-3.7281417462509125e-05
1.6204125131480396e-05,4.83438816445414e-06,-3.813724106294103e-05
2.8957110771443695e-06,4.101133527001366e-06,-2.8806192858610302e-05
-4.355147211754229e-06,3.93495747630368e-06,-2.62517569353804e-05
2.373325287408079e-06,2.3329066607402638e-06,-3.138840838801116e-05
1.0266411663906183e-05,3.3601864402044157e-07,-3.763888162211515e-05
1.3049563676759135e-05,2.3149482331064064e-07,-3.8654558011330664e-05
1.111520850827219e-05,2.8548740829137387e-06,-3.103592462139204e-05
4.975747287971899e-06,4.23888877776335e-06,-1.7126727470895275e-05
1.296060077038419e-06,2.6608117877913173e-06,-1.7231258198080468e-06
3.892027507390594e-06,-2.4261785824819526e-07,8.414798685407732e-06
5.175848855287768e-06,-1.0698994401536766e-06,8.253728083218448e-06
3.1033678169478662e-06,-1.2693305961875012e-06,-5.317183138231485e-08
-1.3986350495542865e-06,-1.028418296300515e-06,-7.63815660320688e-06
-9.14323391043581e-06,-1.470058350605541e-06,-1.1200788321730215e-05
-1.1569952221179847e-05,-4.347465164755704e-06,-1.0091894182551187e-05
-3.5956491046817973e-06,-8.69389532454079e-06,-1.7822568452174892e-06
-1.4441519624597277e-06,-1.0729669156717137e-05,9.15280634217197e-06
-4.9957075134443585e-06,-7.008551619946957e-06,1.8654514860827476e-05
-4.2105966713279486e-06,-2.686330390133662e-06,3.222594386897981e-05
-4.148599145992193e-06,-3.231847585993819e-06,4.604635978466831e-05
-5.0658686632232275e-06,-5.8375198932481e-06,5.6966458942042664e-05
-7.77026707510231e-06,-8.139656529237982e-06,6.605056842090562e-05
-1.4020909475220833e-05,-1.010583400784526e-05,6.626265530940145e-05
-1.2158187928434927e-05,-9.757260158949066e-06,5.852214962942526e-05
-4.707214884547284e-06,-6.116834356362233e-06,5.436492938315496e-05
-1.8215365571450093e-06,-2.2271742636803538e-06,5.7618588471086696e-05
-6.996362600375505e-08,1.329095653090917e-06,5.9973772295052186e-05
-5.034688911109697e-06,2.3438778953277506e-06,5.6924978707684204e-05
-1.8805580111802556e-05,8.928327588364482e-07,4.7577545046806335e-05
-2.4066708647296764e-05,-2.756347839749651e-06,3.373277286300436e-05
-1.163201068266062e-05,-4.765098310599569e-06,2.268189018650446e-05
5.845662144565722e-06,-2.818068651322392e-06,1.3374897207540926e-05
1.3908074834034778e-05,-5.352219432097627e-07,-4.627950147551019e-07
7.689189260418061e-06,1.4080106325309316e-07,-1.3880140613764524e-05
-6.303841018961975e-06,-2.6339810688114085e-07,-1.7064405255950987e-05
-1.1780076420109253e-05,-4.964842332810804e-07,-1.3298076737555675e-05
-2.394869852651027e-06,-1.6397943909396417e-06,-1.267372408619849e-05
9.4572806119686e-06,-1.6196930801015696e-06,-2.2659576643491164e-05
1.5068178981891833e-05,-9.020775451062946e-07,-4.047881157021038e-05
1.184069515147712e-05,7.218724249469233e-07,-5.270695692161098e-05
2.607469923532335e-06,1.7604675122129265e-06,-4.984631959814578e-05
4.150319909967948e-06,1.6656181287544314e-06,-3.4571665310068056e-05
1.7444821423850954e-05,-2.42303514141895e-07,-2.0375895473989658e-05
2.3501610485254787e-05,-2.2909614472155226e-06,-1.381720994686475e-05
1.788262125046458e-05,-1.4712758229507017e-06,-9.980368304240983e-06
1.302701548411278e-05,2.0801944344839285e-07,-4.065577286382904e-06
7.060323241603328e-06,-1.2199502634757664e-06,-5.49749984202208e-07
-1.5434594615726382e-06,-5.177726961846929e-06,7.911728062026668e-06
-9.857512850430794e-06,-6.888142706884537e-06,2.981352918141056e-05
-1.6554462490603328e-05,-7.032962912489893e-06,4.737717972602695e-05
-7.993108738446608e-06,-5.431151748780394e-06,5.2939984016120434e-05
5.770511506852927e-06,-3.3910378078871872e-06,5.438789230538532e-05
1.2525375495897606e-05,-5.844208317284938e-06,6.097283403505571e-05
1.2584143405547366e-05,-1.120481283578556e-05,7.093888416420668e-05
6.256872438825667e-06,-1.3347663298191037e-05,7.501235813833773e-05
-5.068326572654769e-06,-1.0637141713232268e-05,7.240162813104689e-05
-7.343437573581468e-06,-8.542043360648677e-06,6.842429866082966e-05
1.5367924106612918e-06,-8.24166363599943e-06,6.214887253008783e-05
3.8028686049074167e-06,-7.1545860009791795e-06,5.259818863123655e-05
-1.2777887832271517e-06,-5.509707534656627e-06,4.3457115680212155e-05
-8.564597919757944e-06,-4.31969510827912e-06,3.479321821941994e-05
-1.5078338037710637e-05,-3.7174427234276664e-06,2.5399735022801906e-05
-1.4097347957431339e-05,-3.6699568681797246e-06,1.880819399957545e-05
-4.0404229366686195e-06,-3.1393476547236787e-06,1.7239384760614485e-05
2.157099515898153e-06,-1.0905577028097468e-06,1.0632062185322866e-05
4.2571427911752835e-06,9.833058811636874e-07,-3.53495852323249e-06
5.046040769229876e-06,1.211861217598198e-06,-1.4455590644502081e-05
-6.999676998020732e-07,6.877376677039138e-07,-1.844496000558138e-05
-9.762964054971235e-07,2.131155952156405e-06,-2.0812878574361093e-05
1.2912229976791423e-05,2.6617915409588022e-06,-2.677051816135645e-05
2.298387153132353e-05,3.406481710044318e-06,-3.178218685206957e-05
2.331028736080043e-05,4.242256636644015e-06,-3.168496550642885e-05
1.9025210349354893e-05,2.9932032248325413e-06,-3.377721441211179e-05
8.02601243776735e-06,1.3769198403679184e-06,-3.430458309594542e-05
-2.0140230390097713e-06,7.773313086545386e-07,-2.911069714173209e-05
-6.770887466700515e-06,3.997307885583723e-06,-2.5246166842407547e-05
-1.2399538718455005e-05,6.858094820927363e-06,-3.0776056519243866e-05
-7.260550319188042e-06,8.596489351475611e-06,-3.9797581848688424e-05
6.086850589781534e-06,8.046180482779164e-06,-4.484517558012158e-05
1.3411100553639699e-05,6.1226678553794045e-06,-4.1368999518454075e-05
1.387799420626834e-05,4.984542556485394e-06,-2.6668696591514163e-05
5.952697847533273e-06,4.227317276672693e-06,-1.3604003470391035e-06
-1.6533538200746989e-06,3.7601116673613433e-06,2.3404947569360957e-05
-3.539658450790739e-07,2.0363140720291995e-06,3.938344161724672e-05
8.324028385686688e-06,3.160177470817871e-07,5.253126073512249e-05
1.3001937986700796e-05,-1.9840474578813883e-06,6.322226545307785e-05
8.597502528573386e-06,-2.3890988813946024e-06,6.897295679664239e-05
-4.491418167162919e-06,-2.018594159380882e-06,7.154561899369583e-05
-1.6754307580413297e-05,-3.2003656542656245e-06,7.353346154559404e-05
-1.705287468212191e-05,-5.538695859286236e-06,7.190347969299182e-05
-8.064001121965703e-06,-7.338223440456204e-06,6.615013990085572e-05
-1.1216599204999511e-06,-8.965860615717247e-06,5.6980454246513546e-05
8.523806513949239e-07,-8.484296813549008e-06,4.4970467570237815e-05
-1.840620370785473e-06,-5.293937192618614e-06,2.5792573069338687e-05
-1.2122494808863848e-05,-8.816457466309657e-07,2.3166453502199147e-06
-1.2223434168845415e-05,3.11421445076121e-06,-8.683889973326586e-06
5.3851326811127365e-06,2.9989939775987295e-06,2.5579574867151678e-06
2.14852061617421e-05,8.406653364545491e-07,1.540925950394012e-05
2.551931538619101e-05,1.4560505405825097e-06,7.358659331657691e-06
1.8014830857282504e-05,2.447397491778247e-06,-1.2061242159688845e-05
9.430815225641709e-06,2.8162244234408718e-06,-2.2615071429754607e-05
7.123871000658255e-06,2.641482751641888e-06,-2.4333381588803604e-05
2.756510866674944e-06,1.6407772136517451e-06,-2.5576342522981577e-05
-6.548867077071918e-06,1.5384755442937603e-06,-2.690833935048431e-05
-4.669151621783385e-06,7.610218517584144e-07,-2.8172944439575076e-05
6.495507932413602e-06,-1.741860614856705e-06,-2.4124770789057948e-05
1.0877106433326844e-05,-2.8609713353944244e-06,-1.2419274753483478e-05
4.774976332555525e-06,-7.809244806367133e-08,-1.4964224419600214e-06
-9.170003067993093e-06,-5.796710524919035e-07,3.46496358361037e-06
-2.1872896468266845e-05,-3.7210618302196963e-06,6.164242677186849e-06
-2.2958061890676618e-05,-5.9136864365427755e-06,1.188377063954249e-05
-1.3565158042183612e-05,-5.419325589173241e-06,1.9498877009027638e-05
-8.16092415334424e-06,-3.1561232844978804e-06,2.18421446334105e-05
-7.337535862461664e-06,-2.1333698896341957e-06,1.6535746908630244e-05
-1.2088326911907643e-05,-3.7733136650786037e-06,1.3359242075239308e-05
-1.9784914911724627e-05,-5.924533979850821e-06,1.8770459064398892e-05
-1.963402610272169e-05,-6.360007773764664e-06,2.709995533223264e-05
-8.48334912006976e-06,-5.827595487062354e-06,3.448340794420801e-05
1.969364575415966e-06,-3.25746168527985e-06,4.1732186218723655e-05
3.701352625284926e-06,1.1353204172337428e-06,4.90432430524379e-05
-3.0908079224900575e-06,4.767003247252433e-06,5.4036096116760746e-05
-1.4662818102806341e-05,4.111094312975183e-06,5.4934345826040953e-05
-1.9062248611589894e-05,1.4527108760375995e-06,5.371449515223503e-05
-8.788103514234535e-06,-8.283587362711842e-07,5.289721957524307e-05
6.078360001993133e-06,-1.1112163065263303e-06,4.8767979023978114e-05
1.3172774742997717e-05,-3.0124832051114936e-07,4.579838423524052e-05
1.6815880371723324e-05,1.939074991241796e-06,4.643344436772168e-05
1.3220410437497776e-05,3.520296786518884e-06,4.099070793017745e-05
6.8021863626199774e-06,3.457778802840039e-06,3.929098602384329e-05
-3.7916638575552497e-06,1.813466269595665e-06,5.07147196913138e-05
-1.564622471050825e-05,1.6117783161462285e-06,6.344967550830916e-05
-5.4608290156465955e-06,3.4621230042830575e-06,5.951647472102195e-05
1.5583764252369292e-05,2.6580669327813666e-06,3.9355574699584395e-05
2.79914602288045e-05,6.813817776674114e-08,1.793361661839299e-05
3.0990300729172304e-05,-5.041887106926879e-06,-1.5832107465030276e-06
2.6597967007546686e-05,-8.785455065662973e-06,-1.7460530216339976e-05
1.3540550753532443e-05,-1.0893784747167956e-05,-3.207448389730416e-05
3.5831028526445152e-06,-1.1697460649884306e-05,-4.111279849894345e-05
7.456885668943869e-06,-1.3100245269015431e-05,-3.942481998819858e-05
1.743427310429979e-05,-1.2422850886650849e-05,-2.9021059162914753e-05
2.377912460360676e-05,-8.107605026452802e-06,-1.594332752574701e-05
1.7784755982575007e-05,-3.7315644476620946e-06,-6.7773371483781375e-06
3.312368619390327e-07,-2.6138400244235527e-06,-4.824114512302913e-06
-1.2210848581162281e-05,-3.842646947305184e-06,-1.2289730875636451e-05
-6.899481832078891e-06,-4.758786872116616e-06,-2.9249911676743068e-05
1.3982903510623146e-06,-5.039134975959314e-06,-4.7804245696170256e-05
1.1782019555539591e-06,-3.1868682981439633e-06,-5.4272779379971325e-05
-4.315237674745731e-06,-5.627130690299964e-07,-4.0707098378334194e-05
-1.556983988848515e-05,3.7974780298100086e-06,-1.5004495253378991e-05
-2.0361736460472457e-05,5.824572781421011e-06,7.612298304593423e-06
-7.11449592927238e-06,4.171723958279472e-06,2.768826379906386e-05
4.945892669638852e-06,1.611271329693409e-07,4.2472169297980145e-05
8.846969649312086e-06,-6.370621576934354e-06,4.994722257833928e-05
4.375681328383507e-06,-1.1651490240183193e-05,5.3285068133845925e-05
-4.1491152842354495e-06,-7.961297342262696e-06,5.6773293181322515e-05
-2.4782243599474896e-06,-1.930879989231471e-06,6.177770410431549e-05
-2.246202257083496e-06,-2.5344681944261538e-06,6.64642866468057e-05
-1.1349211490596645e-05,-3.0070925731706666e-06,6.581767956959084e-05
-1.4008955986355431e-05,-8.254230579041177e-07,5.893902198295109e-05
-7.855705916881561e-06,-5.72191368064523e-07,5.220155435381457e-05
-5.589532975136535e-06,-4.71220289455232e-08,4.7604553401470184e-05
-6.205393219715916e-06,8.091907375273877e-07,4.651264680433087e-05
-9.396217137691565e-06,1.6770842492519478e-08,4.570419332594611e-05
-1.4491665751847904e-05,-3.3375278007952147e-07,4.169890235061757e-05
-1.0776911040011328e-05,8.812369856059377e-07,2.9273553082020953e-05
2.7161036086909007e-06,1.2036369980705786e-06,1.0765457773231901e-05
1.4210286281013396e-05,2.1202359334893117e-07,-5.424325991043588e-06
1.710027572698891e-05,1.0127837413165253e-07,-1.660123780311551e-05
1.1157227163494099e-05,7.580916303595586e-07,-2.7764999686041847e-05
3.0729546551810927e-07,1.7413361774742953e-06,-4.237563916831277e-05
-2.812444336086628e-06,2.596792455733521e-06,-5.280308687360957e-05
3.2145633213076508e-06,1.4860978581054951e-06,-5.2071733080083504e-05
2.799846924972371e-06,-1.1818360690085683e-06,-4.5367702114162967e-05
-3.240187197661726e-06,-3.621988980739843e-06,-4.129143781028688e-05
-6.489428869826952e-06,-4.184934368822724e-06,-3.768821989069693e-05
-1.1370058928150684e-05,-2.8144656880613184e-06,-2.6539935788605362e-05
-9.004405001178384e-06,-3.4019344639091287e-06,-5.760492058470845e-06
4.723306119558401e-06,-4.455645012058085e-06,1.3892168681195471e-05
1.3466322343447246e-05,-5.583922302321298e-06,2.2049312974559143e-05
1.026957033900544e-05,-5.810692073282553e-06,1.3824493180436548e-05
4.359828380984254e-06,-3.323062401250354e-06,8.923389032133855e-07
3.2498442124051508e-06,-1.3815358670399291e-06,-3.185674358974211e-06
4.750320385937812e-06,-4.826829353987705e-06,1.1567606179596623e-06
2.647343990247464e-06,-7.153609658416826e-06,1.671988684393e-05
-7.1267209023062605e-06,-6.572828624484828e-06,3.9282920624827966e-05
-9.537729965813924e-06,-7.5788857429870404e-06,6.295923230936751e-05
-2.898599404943525e-06,-7.663805263291579e-06,8.632369281258434e-05
4.1498319660604466e-06,-7.336740964092314e-06,0.00010634416685206816
4.943302428728202e-06,-7.188933977886336e-06,0.00011628961510723457
-5.206940841162577e-06,-8.018910193641204e-06,0.0001090469813789241
-1.6908417819649912e-05,-8.746479579713196e-06,8.771294233156368e-05
-1.7612606825423427e-05,-8.737444659345783e-06,6.0563987062778324e-05
-9.171892997983377e-06,-7.582499620184535e-06,3.696811472764239e-05
-8.436506959696999e-07,-5.369407972466433e-06,2.04385523829842e-05
5.890306056244299e-06,-3.1695026336819865e-06,1.1017635188181885e-05
7.088038728397805e-06,-2.7201945158594754e-06,8.666255780553911e-06
1.397172809447511e-06,-3.933678272005636e-06,8.09366065368522e-06
-1.3346124205781962e-06,-4.125306531932438e-06,2.038429329331848e-06
5.8315572459832765e-06,-2.816830829033279e-06,-1.2258728929737117e-05
1.27419571072096e-05,-3.141812157991808e-06,-2.5577059204806574e-05
1.4171559087117203e-05,-2.353257059439784e-06,-2.7049434720538557e-05
1.0736885997175705e-05,2.982878186230664e-06,-2.3013182726572268e-05
4.0954000724013895e-07,9.01281600818038e-06,-2.382589445915073e-05
-4.605366029863944e-06,1.4445104170590639e-05,-2.745273377513513e-05
5.509225957212038e-06,1.652856735745445e-05,-2.526003481762018e-05
1.617401903786231e-05,1.4132946489553433e-05,-1.9579065337893553e-05
1.9797711502178572e-05,1.001736836769851e-05,-1.905777935462538e-05
1.838503885664977e-05,7.483424724341603e-06,-1.1167846423632e-05
1.209583024319727e-05,5.6441722335875966e-06,2.267491254315246e-06
2.504904614397674e-06,3.882809323840775e-06,4.0706390791456215e-06
-4.63839523945353e-06,3.655318323581014e-06,-3.7991555927874288e-06
-4.8876800065045245e-06,3.967780230595963e-06,-6.2890690060157795e-06
4.295858616387704e-06,1.4583749816665659e-06,7.414663741656113e-06
1.6006817531888373e-05,-2.394974444541731e-06,3.053771797567606e-05
2.1182073396630585e-05,-2.2967449240240967e-06,5.167430208530277e-05
1.9987564883194864e-05,-5.753693130827742e-07,5.558952398132533e-05
1.0405154171166942e-05,1.3350282870305819e-06,3.9864040445536375e-05
-8.249458574027813e-07,2.974562448798679e-06,2.4052827939158306e-05
-1.973160578927491e-06,2.8030717658111826e-06,2.289540680067148e-05
5.560758836509194e-06,7.752314559184015e-07,3.458563151070848e-05
1.3346104424272198e-05,-2.5236695364583284e-06,4.850508412346244e-05
1.6149153452715836e-05,-5.154214250069344e-06,5.652122854371555e-05
7.537221790698823e-06,-6.631721589656081e-06,5.630808664136566e-05
-9.752275218488649e-06,-5.634288299916079e-06,4.775403795065358e-05
-1.648054603720084e-05,-2.7462883736006916e-06,3.56415293936152e-05
-1.7434400660931715e-06,-1.9972148947999813e-06,2.896500882343389e-05
1.5558407540083863e-05,-3.422572262934409e-06,3.1889296224107966e-05
1.9555098333512433e-05,-3.572707100829575e-06,3.8339941966114566e-05
1.361559952783864e-05,4.707958112248889e-07,4.0441329474560916e-05
5.481701919052284e-06,4.175035883235978e-06,3.6961799196433276e-05
5.112207418278558e-06,1.4175195701682242e-06,2.7303334718453698e-05
1.0934411875496153e-05,-2.850375267371419e-06,1.1642398931144271e-05
1.2893682651338167e-05,-3.273544052717625e-06,-1.249451088369824e-05
9.51741367316572e-06,-3.152642022996588e-07,-4.010838165413588e-05
5.809436970594106e-06,6.30341264695744e-06,-5.388459248933941e-05
7.274103154486511e-06,9.060016964212991e-06,-5.0867929530795664e-05
1.2815138688893057e-05,7.332535915338667e-06,-4.572709804051556e-05
8.761954632063862e-06,5.473164947034093e-06,-4.556751446216367e-05
-4.265893039701041e-06,1.6650494671921479e-06,-4.5208951632957906e-05
-4.126447947783163e-06,-1.3658122952620033e-06,-3.76331117877271e-05
8.12767211755272e-06,-4.1128914745058864e-06,-2.139792741218116e-05
1.4713887139805593e-05,-5.549577508645598e-06,-4.725312919617863e-06
1.1858068319270387e-05,-6.2982612689665984e-06,5.4572001317865215e-06
6.540437425428536e-06,-6.366656634781975e-06,7.907526196504477e-06
1.5915459243842633e-06,-5.465467893372988e-06,9.837111065280624e-06
7.828689945199585e-07,-2.4737803414609516e-06,1.8020469724433497e-05
4.3767176975961775e-06,6.87413717059826e-07,3.28078240272589e-05
5.10405197928776e-06,2.2114309103926644e-06,5.1165290642529726e-05
1.1572676612559007e-06,2.250671286674333e-06,6.410534115275368e-05
-5.856022198713617e-06,-5.535820832847094e-07,6.440446304623038e-05
-1.2280918781470973e-05,-3.5847604067384964e-06,5.7075649237958714e-05
-1.4073292732064147e-05,-4.771608018927509e-06,5.573511589318514e-05
-9.388387297804002e-06,-3.1593474432156654e-06,6.346931331790984e-05
-9.299247949456912e-07,-1.6581428496920125e-07,7.223122520372272e-05
6.248168119782349e-06,2.319329041711171e-06,7.358541915891692e-05
4.1326693462906405e-06,-2.6654885232346714e-07,6.600379856536165e-05
-5.937470632488839e-06,-4.474496108741732e-06,5.752615834353492e-05
-1.0814609595399816e-05,-6.146110081317602e-06,4.754125257022679e-05
-4.328688646637602e-06,-7.090191502356902e-06,3.218376150471158e-05
8.382895657632616e-07,-8.398253157793079e-06,1.9091639842372388e-05
-2.589968744359794e-06,-9.63485763350036e-06,1.1384830031602178e-05
-2.240115691165556e-06,-6.374629720085068e-06,5.637894446408609e-06
2.1130620098119834e-06,-2.931207745859865e-06,-4.866260951530421e-06
4.270536010153592e-06,-7.952055511850631e-07,-1.9483362848404795e-05
-1.2414172942953883e-06,4.779966729984153e-06,-3.6953380913473666e-05
-1.4035409549251199e-05,7.835374162823427e-06,-5.071726627647877e-05
-1.3182787370169535e-05,7.286678737727925e-06,-5.014103226130828e-05
-1.3984292763780104e-06,4.54204564448446e-06,-3.752219708985649e-05
4.901868578599533e-06,2.771382469290984e-06,-2.1694591850973666e-05
3.239964144086116e-06,3.969959379901411e-06,-1.4530751286656596e-05
-5.9732092267950065e-06,5.1328656809346285e-06,-1.829898974392563e-05
-1.7620239304960705e-05,3.163138671880006e-06,-2.452962326060515e-05
-1.4935911167412996e-05,4.445702472821722e-07,-2.7873426006408408e-05
3.4668182706809603e-06,1.4630167299856112e-07,-2.635147211549338e-05
1.6349922589142807e-05,1.5751235196148627e-06,-1.6600046365056187e-05
1.6348076314898208e-05,2.658578068803763e-06,-2.2467281723947963e-06
4.828510554943932e-06,3.223142584829475e-06,6.267202934395755e-06
-1.0202827979810536e-05,2.916308858402772e-06,3.785555918511818e-06
-1.5891082512098365e-05,1.0589141083983122e-06,4.4334700532999705e-07
-1.110198354581371e-05,7.555984637974689e-08,7.988980541995261e-06
-7.243320396810304e-06,-1.2444800177036086e-06,2.3901049644337036e-05
-7.947609447001014e-06,-3.621535370257334e-06,3.879906580550596e-05
-1.115628401748836e-05,-6.894723810546566e-06,4.672939030569978e-05
-1.4198010831023566e-05,-9.917779607349075e-06,4.899701525573619e-05
-9.85483256954467e-06,-1.2369811884127557e-05,6.23747255303897e-05
3.2703071610740153e-06,-1.4371640645549633e-05,8.913910278351977e-05
1.271739529329352e-05,-1.3343742466531694e-05,0.00010363588080508634
1.1533807082741987e-05,-1.0695034688978922e-05,9.913691610563546e-05
4.382159204396885e-06,-8.769742635195144e-06,9.396304085385054e-05
-4.643582087737741e-06,-5.86494434173801e-06,9.181001951219514e-05
-6.789232429582626e-06,-1.9416895611357177e-06,8.22130314190872e-05
-6.502227279270301e-06,-5.690192779184144e-07,6.149727414594963e-05
-1.2316578249738086e-05,-2.342535708521609e-06,3.326902151457034e-05
-1.214910480484832e-05,-1.7090509345507598e-06,2.301796030224068e-06
-4.84434531244915e-06,1.8173931266574073e-06,-2.3996639356482774e-05
8.089703555924643e-07,3.225165983167244e-06,-3.452382952673361e-05
5.287735802994575e-06,-1.2516557035269216e-06,-3.095447755185887e-05
5.42907218914479e-06,-5.462111403176095e-06,-2.838226646417752e-05
1.14089266389783e-06,-7.36090578357107e-06,-3.3787502616178244e-05
1.9011638414667686e-06,-5.751908702222863e-06,-3.6409415770322084e-05
6.211319487192668e-06,-2.968807848446886e-06,-3.0289911592262797e-05
5.726132712879917e-06,1.0783161314975587e-06,-2.0924433556501754e-05
1.6442716059827944e-06,3.421051133045694e-06,-1.5384901416837238e-05
-3.6976095998397795e-06,1.9765902834478766e-06,-1.1994133274129126e-05
-9.731621503306087e-06,6.88250906932808e-07,-7.0547093855566345e-06
-1.0219792784482706e-05,3.2210297717938374e-07,-3.2702503176551545e-06
4.773605155605765e-07,-1.0124929303856334e-06,-3.1138565645960625e-06
1.2502520803536754e-05,-2.0298118670325493e-06,-2.2385875126929022e-06
1.6073287042672746e-05,1.0200733413512353e-07,1.7581777456143755e-06
1.2994095413887408e-05,-9.954864026440191e-07,6.167721949168481e-06
6.137951004347997e-06,-4.360377715784125e-06,8.15201383375097e-06
1.7651912003202597e-06,-6.212164862517966e-06,6.5006538534362335e-06
7.086094683472766e-06,-6.4643736550351605e-06,6.722573289152933e-06
1.3767656128038652e-05,-5.728615633415757e-06,1.113288089982234e-05
1.344457359664375e-05,-2.251907744721393e-06,1.851737943070475e-05
9.925500307872426e-06,4.811020630768326e-07,2.6838051780941896e-05
4.590900971379597e-06,-5.462517265186762e-07,2.728387880779337e-05
-1.0947364899038803e-06,-4.2608835428836755e-06,1.8204515072284266e-05
-7.40456653147703e-06,-5.314514055498876e-06,9.140885595115833e-06
-1.5026462278910913e-05,-4.852600341109792e-06,9.62995818554191e-06
-1.097108452086104e-05,-5.843030976393493e-06,1.759903898346238e-05
-2.3148786567617208e-06,-7.634318535565399e-06,2.0427300114533864e-05
-4.387939327443746e-07,-9.116462933889125e-06,2.082744504150469e-05
-2.6677880669012666e-06,-9.415033673576545e-06,2.1020923668402247e-05
-1.1129537597298622e-05,-6.294593276834348e-06,2.19070898310747e-05
-1.811141919461079e-05,-1.0159545809074189e-06,2.0390965801198035e-05
-1.2111918294976931e-05,3.2628663575451355e-06,1.8975590137415566e-05
3.7740983316325583e-06,4.7100043047976214e-06,2.1094936528243124e-05
1.1485875802463852e-05,3.785633225561469e-06,2.2457670638686977e-05
3.66113613381458e-06,1.759996848704759e-06,2.301110180269461e-05
-1.0126946108357515e-05,5.797886046821077e-07,1.9839622837025672e-05
-1.611100924492348e-05,5.42342775133875e-07,1.2530400454124901e-05
-8.936695849115495e-06,-3.007095585871866e-07,4.564255959849106e-06
3.728102910827147e-06,-9.301433010477922e-07,3.5657583339343546e-06
1.0980426850437652e-05,-2.6556031116342638e-06,9.004800631373655e-06
1.2262654308869969e-05,-3.192394615325611e-06,1.2087572940799873e-05
7.892756002547685e-06,3.1872752970230067e-07,7.399156402243534e-06
-4.5203270815363794e-07,4.643080046662362e-06,5.264908395474777e-06
2.9366683520493098e-06,4.971658199792728e-06,7.165449915191857e-06
1.8534901755629107e-05,1.696422941677156e-06,3.214440312149236e-06
2.6410505597596057e-05,-2.0106590454815887e-06,-9.182233043247834e-06
2.1305959307937883e-05,-7.629495485161897e-06,-2.330845018150285e-05
9.442474947718438e-06,-9.042448255058844e-06,-2.0597404727595858e-05
-8.015065304789459e-07,-5.080619757791283e-06,3.4882782529166434e-07
-3.113796765319421e-06,-4.579092092171777e-06,1.5121066098799929e-05
-2.3392651655740337e-06,-5.263122147880495e-06,1.9650622562039644e-05
-5.361051080399193e-06,-4.454309873835882e-06,2.5139557692455128e-05
-1.0400386827313923e-06,-2.4236094304797007e-06,3.0077500923653133e-05
1.1660498785204254e-05,-2.9605685085698497e-06,2.9094941055518575e-05
1.9235310901422054e-05,-3.3718320082698483e-06,2.4580545868957415e-05
2.029057577601634e-05,-4.3755749175034e-06,2.1147461666259915e-05
1.046927172865253e-05,-5.4676029321854e-06,1.6403821064159274e-05
-5.550402420340106e-06,-7.50905746826902e-06,1.3849001334165223e-05
-1.2173499271739274e-05,-9.818736543820705e-06,2.3684404368395917e-05
-6.186318387335632e-06,-9.254104952560738e-06,4.717371120932512e-05
1.6307385521940887e-06,-6.733475856890436e-06,6.859073619125411e-05
6.1360333347693086e-06,-4.902326054434525e-06,7.435389125021175e-05
4.75554179502069e-06,-3.6798257951886626e-06,6.585886148968711e-05
-3.172710648868815e-06,1.4218167621038447e-07,5.2952778787584975e-05
-8.40038774185814e-06,5.358176167646889e-06,3.9374037442030385e-05
-3.967433258367237e-06,7.375600034720264e-06,2.5923003704519942e-05
3.522235374475713e-06,5.499551207321929e-06,1.7751988707459532e-05
7.4521649366943166e-06,3.453833869571099e-06,1.5692736269556917e-05
5.3478870540857315e-06,6.904350868808251e-08,1.0244802069792058e-05
-3.3188232464453904e-06,-2.67795462605136e-06,-1.9294352568977047e-06
-2.025766661972739e-06,-2.3663410502194893e-06,-9.745752322487533e-06
1.1170666766702197e-05,-1.5366896377599915e-07,-8.433047696598805e-06
1.712885932647623e-05,1.0877157592403819e-06,-3.266293788328767e-06
1.273769430554239e-05,9.347726290798164e-07,-4.066711881023366e-06
8.38080177345546e-06,-1.5584616903652204e-06,-1.5279745639418252e-05
8.113814146781806e-06,-1.786135271686362e-06,-2.906308691308368e-05
8.830144906823989e-06,2.6721083941083634e-06,-3.235143958590925e-05
6.113142262620386e-06,8.24060680315597e-06,-2.5031404220499098e-05
1.6446714425910613e-06,1.0158931218029466e-05,-1.9932691429858096e-05
8.059852916630916e-06,9.473624231759459e-06,-1.2322937436692882e-05
1.9840977984131314e-05,7.187286428234074e-06,-2.6736274776339997e-06
2.352027513552457e-05,4.99675979881431e-06,-1.201865643452038e-06
1.8152062693843618e-05,5.568774213315919e-06,-2.3424152004736243e-06
6.994894647505134e-06,7.609124622831587e-06,3.0610210615122924e-06
-2.831521896951017e-06,8.04175124358153e-06,1.5131462532735895e-05
-2.35066954701324e-06,6.663026852038456e-06,2.8515196390799247e-05
3.7555785183940316e-06,5.881692686671158e-06,4.403340062708594e-05
4.245792297297157e-06,5.571902875090018e-06,5.909030369366519e-05
5.93880088217702e-07,4.244615865900414e-06,7.00830205460079e-05
-6.784463494113879e-06,1.6049392570494092e-06,7.681629358557984e-05
-1.3024628060520627e-05,-1.841544076341961e-06,8.250055543612689e-05
-9.624759513826575e-06,-4.554858605843037e-06,8.63485038280487e-05
4.384228873277607e-07,-4.5365454752754886e-06,8.21686553535983e-05
5.576875537371961e-06,-3.1355073133454425e-06,7.160339009715244e-05
3.846699655696284e-06,-2.365614591326448e-06,6.414859672077e-05
-2.3521461116615683e-06,-4.355453711468726e-06,5.64935508009512e-05
-1.3046075764577836e-05,-7.140728030208265e-06,4.25964935857337e-05
-1.5881858416832983e-05,-5.6580829550512135e-06,2.339600359846372e-05
-4.08770529247704e-06,-2.2033179902791744e-06,5.328079168975819e-06
3.0800458716839785e-06,-3.66475023838575e-06,-1.1126518074888736e-05
2.026541324084974e-06,-6.524086074932711e-06,-3.348400059621781e-05
6.319149633782217e-06,-7.736130100965966e-06,-5.369954669731669e-05
1.4572165127901826e-05,-8.816456102067605e-06,-6.145371298771352e-05
2.199997652496677e-05,-1.0284735253662802e-05,-5.986524047330022e-05
1.8466789697413333e-05,-8.374207936867606e-06,-5.032409535488114e-05
3.2656005259923404e-06,-3.300947355455719e-06,-3.835915413219482e-05
-1.412658662047761e-06,1.5105053989827866e-06,-3.2897885830607265e-05
4.61057061329484e-06,2.3770887764840154e-06,-3.260101220803335e-05
7.847971573937684e-06,5.752326615038328e-07,-3.714860213221982e-05
8.838364010443911e-06,8.40637198962213e-07,-3.7329289625631645e-05
7.515566267102258e-06,2.7111250346933957e-06,-3.521802500472404e-05
2.878035274989088e-06,3.3889409678522497e-06,-3.1661955290474e-05
9.14618340175366e-07,2.614643562992569e-06,-2.112689435307402e-05
3.892484528478235e-06,2.3974525902303867e-06,-2.092856220770045e-06
2.1886444301344454e-06,2.4580099307058845e-06,1.3435048458632082e-05
-5.754211088060401e-06,2.99461589747807e-06,1.7533575373818167e-05
-1.3423136806522962e-05,3.191541964042699e-06,1.749548755469732e-05
-1.7608994312467985e-05,2.242778464278672e-06,2.2200845705810934e-05
-1.6387401046813466e-05,-2.3514239444466511e-07,3.3309221180388704e-05
-8.45732483867323e-06,-3.5966145333077293e-06,4.576089486363344e-05
-4.497510417422745e-06,-8.228177648561541e-06,5.718298052670434e-05
-7.761265806038864e-06,-1.1631072084128391e-05,6.556966400239617e-05
-1.2652779332711361e-05,-8.76284138939809e-06,7.60983966756612e-05
-1.9495571905281395e-05,-2.178544491471257e-06,8.573479863116518e-05
-1.9031818737857975e-05,1.8667932408789056e-06,8.918421372072771e-05
-7.3272394729428925e-06,2.917919914580125e-07,8.532412175554782e-05
-4.4834493451162416e-07,-4.543937393464148e-06,7.896086754044518e-05
-2.11397332350316e-06,-9.831648640101776e-06,7.289429049706087e-05
-2.54670885624364e-06,-1.20364929898642e-05,6.960603059269488e-05
-3.847530479106354e-06,-9.304982086177915e-06,6.30255090072751e-05
-4.72014016850153e-06,-7.350238320213975e-06,5.06228425365407e-05
-7.647360689588822e-06,-5.167922608961817e-06,4.0321934648090973e-05
-1.4377875231730286e-05,-2.3484296889364487e-06,3.434875907259993e-05
-1.098369375540642e-05,-2.735268026299309e-06,3.096857835771516e-05
-2.55853319686139e-06,-6.01965712121455e-06,2.8565576940309256e-05
2.7074913759861374e-06,-7.548073426733026e-06,2.0552253772621043e-05
4.534080289886333e-06,-6.0663332988042384e-06,2.572678340584389e-06
3.2872358133317903e-06,-1.900483312056167e-06,-1.4448509318754077e-05
1.443710402782017e-06,1.913562073241337e-06,-2.110354762407951e-05
5.3826292969461065e-06,2.45393448494724e-06,-2.2661608454654925e-05
1.5202474969555624e-05,1.419701220584102e-06,-2.5605324481148273e-05
2.1246858523227274e-05,3.2289139539898315e-07,-2.9935074053355493e-05
2.1488605852937326e-05,4.6872696657374036e-07,-3.254840703448281e-05
1.3374399713939056e-05,1.321779109275667e-06,-3.1297357054427266e-05
1.3982739801576827e-06,1.7006591406243388e-06,-2.7413945645093918e-05
9.220218544214731e-07,5.0316433686248274e-08,-2.065851731458679e-05
1.2328890079515986e-05,-2.35218294619699e-06,-1.0739897334133275e-05
1.7352766008116305e-05,-3.381549504410941e-06,-8.31879049201234e-07
9.416360626346432e-06,-1.816569920265465e-06,7.324480975512415e-06
-3.7671043173759244e-06,5.688689839189465e-07,1.5518540749326348e-05
-1.4307775927591138e-05,1.7206467646246892e-06,2.2514423108077608e-05
-1.3008806490688585e-05,-1.5052257822389947e-06,2.724235673667863e-05
4.1192438402504195e-06,-5.740647793572862e-06,3.352977000758983e-05
1.690421595412772e-05,-7.449400982295629e-06,4.223228097544052e-05
1.7301466868957505e-05,-9.513620170764625e-06,4.547107164398767e-05
1.4674997146357782e-05,-1.021063235384645e-05,5.179714207770303e-05
1.0907575415330939e-05,-8.295356565213297e-06,6.70845911372453e-05
6.944486358406721e-06,-6.06456933383015e-06,8.0355595855508e-05
-3.0013054583832854e-06,-4.302327397454064e-06,9.1023845016025e-05
-1.546604289615061e-05,-3.7330853501771344e-06,0.00010155203199246898
-1.2388822142384015e-05,-4.646642082661856e-06,0.0001085408148355782
8.709949952390161e-07,-6.231738097994821e-06,0.00010799501615110785
7.64487140259007e-06,-7.820306564099155e-06,9.711700113257393e-05
4.4627195165958256e-06,-7.835820724721998e-06,7.421901682391763e-05
-3.210382601537276e-06,-5.964585398032796e-06,3.5354591091163456e-05
-8.02331487648189e-06,-3.934587766707409e-06,-1.3069144188193604e-05
-4.86697854285012e-06,-1.9713545498234453e-06,-5.020675962441601e-05
3.511878730932949e-06,-5.195640255806211e-07,-6.917792052263394e-05
7.416618700517574e-06,4.3815109052047774e-07,-8.104047446977347e-05
5.605467322311597e-06,1.5662532177884714e-06,-9.917360875988379e-05
-2.109421075147111e-06,3.3398164305253886e-06,-0.00011444325355114415
-9.458703061682172e-06,5.932694421062479e-06,-0.00011007901775883511
-6.575964562216541e-06,7.122961505956482e-06,-9.079901064978912e-05
3.6636192817240953e-06,6.4670252868381795e-06,-7.427105447277427e-05
8.49953903525602e-06,6.873096936033107e-06,-6.876076804473996e-05
9.054164365807083e-06,6.681243576167617e-06,-6.373281212290749e-05
8.601886293035932e-06,4.682608050643466e-06,-5.0050064601236954e-05
1.276799594052136e-06,4.6712489165656734e-06,-3.5809782275464386e-05
-3.080794158449862e-06,6.0271490838204045e-06,-2.837493047991302e-05
7.252569048432633e-06,4.946509761794005e-06,-2.4145316274370998e-05
1.989971315197181e-05,9.683259349912987e-07,-1.961295674846042e-05
2.1586796719930135e-05,-2.706840177779668e-06,-1.4357004147314001e-05
1.475760291214101e-05,-5.294166840030812e-06,-8.424451152677648e-06
9.658557246439159e-06,-5.4424886002379935e-06,4.7642679419368505e-06
7.49815126255271e-06,-2.912496938733966e-06,2.1399966499302536e-05
-3.108140163021744e-07,-5.8601084873544096e-08,3.20457256748341e-05
-4.259331944922451e-06,-1.0750955681260166e-07,3.5994653444504365e-05
5.057167527411366e-06,-2.7769626740337117e-06,3.85221719625406e-05
1.1632503628788982e-05,-4.739063115266617e-06,4.523276584222913e-05
7.514693152188556e-06,-5.211767984292237e-06,5.7785608078120276e-05
7.991114898686646e-07,-4.603266916092252e-06,7.271028880495578e-05
-6.408394256141037e-06,-1.8392529455013573e-06,8.441773388767615e-05
-1.3138321264705155e-05,2.695151408715901e-07,9.089028026210144e-05
-1.2911882549815346e-05,-4.614699378180376e-08,9.33748233364895e-05
-6.933355052751722e-06,-1.6081723970273742e-06,9.140484326053411e-05
-3.6116525734541938e-06,-4.8024867282947525e-06,8.299753972096369e-05
-3.988410753663629e-06,-9.120330105361063e-06,6.885155744384974e-05
-8.635591257188935e-06,-1.0464203114679549e-05,5.351131403585896e-05
-1.4635110346716829e-05,-6.727956588292727e-06,3.89620108762756e-05
-1.202739713335177e-05,-2.719081749091856e-06,2.823058093781583e-05
-2.0440031676116632e-06,-6.36062225112255e-07,2.792162194964476e-05
2.3618119939783355e-06,9.486039402872848e-07,3.392346843611449e-05
1.565876459608262e-06,3.27818133882829e-06,3.4207831049570814e-05
4.3262596705062606e-07,4.860882654611487e-06,2.351697185076773e-05
-4.739321411761921e-06,5.436535047920188e-06,4.5479491745936684e-06
-3.855082923109876e-06,3.90089007851202e-06,-1.760662235028576e-05
5.89755518376478e-06,-4.800544957106467e-07,-2.9429429559968412e-05
1.195284494315274e-05,-2.739183628364117e-06,-2.6319445169065148e-05
1.5615787560818717e-05,-2.0169820800219895e-06,-2.044773100351449e-05
1.5642393918824382e-05,-5.745932298850676e-07,-2.0462224711081944e-05
1.055905522662215e-05,1.5236923900374677e-06,-2.9121812985977158e-05
8.195270311261993e-06,1.4738822073923075e-06,-3.805522283073515e-05
2.2603342131333193e-06,-2.3290940731612864e-08,-3.652256782515906e-05
-7.818272933945991e-06,-9.016511057780008e-07,-2.4154143829946406e-05
-3.5396988096181303e-06,-3.575493110474781e-06,-1.0219086107099429e-05
8.111232091323473e-06,-4.299375177652109e-06,-2.357800667596166e-06
1.2000138667644933e-05,-4.316431727602321e-07,-2.01856232706632e-06
8.128064109769184e-06,2.645542963364278e-06,-1.4841273241472663e-06
1.523230366728967e-06,2.632009682201897e-06,8.627978786535095e-06
-5.792276624561055e-06,1.0064770776807563e-06,2.2699250621371903e-05
-7.447894859069493e-06,1.934169404194108e-06,3.814747105934657e-05
-2.855424781955662e-06,4.602267381415004e-06,5.140440407558344e-05
1.0771944971565972e-06,5.049817900726339e-06,5.8808582252822816e-05
2.3693576167715946e-06,1.9986007373518078e-06,6.021322406013496e-05
-2.742383685472305e-06,-1.1104189923116792e-07,6.21997460257262e-05
-1.1346335668349639e-05,8.429032618550991e-07,6.702278915327042e-05
-1.2596078704518732e-05,2.6669042654248187e-06,7.111394370440394e-05
-3.385011041245889e-06,1.366963260807097e-06,6.919255974935368e-05
3.874803496728418e-06,-1.7780762391339522e-06,5.854215123690665e-05
2.228477342214319e-06,-1.8350760910834651e-06,4.78668007417582e-05
-6.075845249142731e-06,3.9271088780878927e-07,4.575234925141558e-05
-1.4577775800717063e-05,3.299241143395193e-06,4.8684294597478583e-05
-1.4340112102217972e-05,5.263188995741075e-06,4.876052844338119e-05
-7.427740342791367e-07,5.806292392662726e-06,4.434821312315762e-05
1.0701636711019091e-05,5.404873263614718e-06,3.5703018511412665e-05
1.0773163921840023e-05,2.848217718565138e-06,2.0826864783884957e-05
7.802919753885362e-06,-1.2327179774729302e-06,1.9000621023224085e-06
8.473894922644831e-06,-2.268225443913252e-06,-1.0328371899959166e-05
1.3965019206807483e-05,-2.9114623885106994e-06,-1.6944795788731426e-05
1.2025205251120497e-05,-3.3233889098482905e-06,-1.88084250112297e-05
-2.174164592361194e-06,-2.8561385079228785e-06,-1.623522985028103e-05
-6.353170647344086e-06,-1.0055524626295664e-06,-1.3858668353350367e-05
1.998369043576531e-06,2.773989038473701e-08,-1.544107544759754e-05
5.659587259287946e-06,-1.163476213150716e-06,-1.642625647946261e-05
2.555347464294755e-06,-2.0852908164670225e-06,-1.2096698810637463e-05
-1.1801321306847967e-06,-1.4224481219571317e-06,-8.650156814837828e-06
-2.152001798094716e-06,3.1619362061974243e-07,-1.1180024557688739e-05
1.542235622764565e-06,-5.565486276282172e-07,-1.8962748072226532e-05
8.186606464732904e-06,-5.057247108197771e-06,-2.5807383281062357e-05
1.2671644981310237e-05,-8.707454981049523e-06,-2.5749875931069255e-05
1.4216569979907945e-05,-9.045835213328246e-06,-2.1139039745321497e-05
9.637514267524239e-06,-8.313078978972044e-06,-1.689141026872676e-05
6.32247818543874e-08,-6.621840384468669e-06,-1.2830663763452321e-05
-4.403814727993449e-06,-7.10190715835779e-06,-5.826741471537389e-06
4.852598749494064e-07,-1.0531281077419408e-05,4.779415121447528e-06
2.9830800940544577e-06,-1.229885128850583e-05,1.5935907867969945e-05
-1.444441153353182e-07,-1.1605270628933795e-05,2.6482020984985866e-05
-5.536755452340003e-06,-1.0356830898672342e-05,3.9719274354865775e-05
-1.4005552657181397e-05,-6.825794571341248e-06,5.4627023928333074e-05
-1.5618752513546497e-05,-3.493116992103751e-06,6.237252819119021e-05
-6.393157946149586e-06,-1.7789554931368912e-06,6.017881605657749e-05
7.268434387697198e-07,-9.44710734529508e-07,5.131909711053595e-05
4.674723186326446e-06,-1.0588270242806175e-06,4.2983985622413456e-05
7.643349817954004e-06,-2.113528125846642e-06,3.716040373547003e-05
1.7013371689245105e-06,-4.759796865982935e-06,3.4178960049757734e-05
-1.0772118912427686e-06,-5.174455509404652e-06,2.7989159207209013e-05
2.8797915092582116e-06,-1.8524642655393109e-06,1.4795448805671185e-05
-1.4290984040599142e-07,1.2202458492538426e-06,9.2141235654708e-06
1.6377657630073372e-06,7.410520765915862e-07,1.5189954865491018e-05
7.492827990063233e-06,-1.551788500364637e-06,1.831773442972917e-05
8.198070645448752e-06,-1.3677096148967394e-06,1.056190740200691e-05
6.86976909491932e-06,3.3213389087904943e-06,4.589365289575653e-06
2.7030898763769073e-06,7.391016424662666e-06,7.2446214289811905e-06
-4.3238233047304675e-06,6.181400749483146e-06,1.1492180419736542e-05
-5.399871042754967e-06,1.074450665328186e-06,1.6474136828037445e-06
2.0535999283310957e-06,-1.899067910926533e-06,-1.904183045553509e-05
8.347125913132913e-06,-4.4768785301130265e-07,-2.7941247026319616e-05
7.868367902119644e-06,1.5098314634087728e-06,-1.7168664271594025e-05
1.2124002068958362e-06,2.627469257276971e-06,2.3413599592458922e-06
-6.174753707455238e-06,2.0491804662015056e-06,1.286432052438613e-05
-7.241862931550713e-06,6.753014076821273e-07,8.276364496850874e-06
-2.7335927370586433e-06,2.3037896426103543e-06,-3.5758928333962103e-06
-1.1925087619601982e-06,6.560577730851946e-06,-1.3156784916645847e-05
-1.377328771923203e-06,9.065722224477213e-06,-2.213406696682796e-05
-3.978453150921268e-06,1.0052896868728567e-05,-2.941390994237736e-05
-1.0811460015247576e-05,8.625916052551474e-06,-2.950235466414597e-05
-8.977789548225701e-06,4.226893452141667e-06,-2.052873242064379e-05
4.396182248456171e-06,-2.9614784580189735e-06,-1.2382785826048348e-05
1.3617201148008462e-05,-9.125932592723984e-06,-9.347257218905725e-06
1.2636637620744295e-05,-8.076649464783259e-06,-2.580486579972785e-06
7.027844731055666e-06,-3.6843862289970275e-06,2.0908368242089637e-05
1.738735704748251e-06,-3.806000492545536e-08,4.843854549108073e-05
-1.2570963008329272e-06,1.050778450917278e-06,6.545460928464308e-05
-1.254470930689422e-06,-8.661285733069235e-07,6.734994531143457e-05
-4.340119630796835e-06,-2.955595846287906e-06,4.4948315917281434e-05
-3.0921364668756723e-06,-5.04009221913293e-06,1.5674015230615623e-05
5.772820259153377e-06,-5.839526238560211e-06,-2.0426732589839958e-06
9.360147487313952e-06,-5.5971072470129e-06,-3.419453832975705e-06
5.227833298704354e-06,-8.018797416298185e-06,2.8546896828629542e-06
-4.012735644209897e-06,-1.0254066182824317e-05,5.489768682309659e-06
-1.0751909940154292e-05,-9.444684110349044e-06,1.4277142099672346e-06
-5.868428161193151e-06,-8.026237992453389e-06,-2.53306075137516e-06
4.086884018761339e-06,-5.6563831094536e-06,-4.8470983529114164e-06
6.848496468592202e-06,-9.542010275254142e-07,-6.912286607985152e-06
2.8983995434828103e-06,3.2143025237019174e-06,-7.786953574395739e-06
-5.937024070590269e-06,4.766233359987382e-06,-5.608583251159871e-06
-1.7420670701540075e-05,3.1115578167373314e-06,-5.131701527716359e-06
-1.639486799831502e-05,-8.109281424140136e-08,-1.1627214917098172e-05
2.3157776922744233e-06,-2.0676204712799517e-06,-1.8793190974975005e-05
1.7388418200425804e-05,-2.456717993482016e-06,-2.2053294742363505e-05
1.8040876966551878e-05,-2.4923883756855503e-06,-1.9907933165086433e-05
1.0344901056669187e-05,-1.4678641946375137e-06,-1.0808457773237024e-05
-3.27165167846033e-07,1.4031753607923747e-06,5.21424226462841e-06
-2.3152683752414305e-06,3.076697339565726e-06,2.6189594791503623e-05
7.998142791620921e-06,3.2184234441956505e-06,4.547711432678625e-05
1.6278032489935867e-05,2.3924201286718016e-06,5.4871172324055806e-05
1.7532716810819693e-05,7.582303851449979e-07,5.520863123820163e-05
1.3658168427355122e-05,2.3162444904301083e-06,4.7989942686399445e-05
9.848037734627724e-06,3.554570639607846e-06,4.013398211100139e-05
9.226669135387056e-06,1.570123572491866e-06,3.911558087565936e-05
3.364564236107981e-06,1.9662365957628936e-08,5.225095083005726e-05
-8.234992492361926e-06,3.949335436459478e-08,7.13371773599647e-05
-1.0210573236690834e-05,-1.3875737749913242e-06,8.647060167277232e-05
-1.991955514313304e-06,-6.685771040793043e-06,9.642905206419528e-05
-2.6979114409186877e-07,-9.579522156855091e-06,0.00010110419680131599
-6.460625627369154e-06,-9.240803592547309e-06,9.788295574253425e-05
-1.3385280908551067e-05,-8.312819772982039e-06,7.6025135058444e-05
-1.5816740415175445e-05,-8.776935828791466e-06,4.3650041334331036e-05
-1.0974226825055666e-05,-9.100981515075546e-06,2.114519156748429e-05
-5.17258740728721e-06,-7.879732947912998e-06,1.6517824406037107e-05
-2.444937081236276e-06,-6.793970442231512e-06,2.6098708985955454e-05
1.8884953760789358e-06,-5.096650511404732e-06,4.054255623486824e-05
1.6343389006578946e-06,-2.293435727551696e-06,4.783363328897394e-05
-7.850833753764164e-06,-5.69978737985366e-07,4.232292121741921e-05
-1.3039505574852228e-05,-1.4115324802332907e-06,2.7441723432275467e-05
-3.209964461348136e-06,-1.4419864555748063e-06,1.0385879249952268e-05
8.408969733864069e-06,1.5666015542592504e-06,-6.313207904895535e-06
1.254043399967486e-05,5.825249900226481e-06,-1.917311965371482e-05
9.265190783480648e-06,8.592320227762684e-06,-2.3844093448133208e-05
-2.9966367947054096e-06,7.75496391725028e-06,-2.4410677724517882e-05
-7.876104973547626e-06,5.990926638332894e-06,-2.7736783522414044e-05
2.3512905045208754e-06,6.45150748823653e-06,-3.255346746300347e-05
1.2300381058594212e-05,6.602072971872985e-06,-4.050537972943857e-05
1.1583699233597144e-05,6.180384843901265e-06,-5.162791785551235e-05
3.7613988297380274e-06,3.921396455552895e-06,-5.989658529870212e-05
-1.759236056386726e-06,1.7433968935165467e-07,-6.0594695241888985e-05
-1.2480766145017697e-06,-4.868645191891119e-06,-4.931330477120355e-05
-2.408222371741431e-06,-5.774711098638363e-06,-3.373697109054774e-05
-7.475611255358672e-06,-3.3505789360788185e-06,-1.6056010281317867e-05
-6.14679129284923e-06,-2.1522062070289394e-06,4.1701032387209125e-06
4.753391351641767e-07,-3.757102376766852e-06,1.8500633814255707e-05
1.539886625323561e-06,-7.077701866364805e-06,2.265709190396592e-05
2.908248575295147e-07,-7.582424586871639e-06,2.146133738278877e-05
-2.8191461751703173e-06,-7.83106133894762e-06,2.5675373763078824e-05
-8.504774086759426e-06,-6.913371180417016e-06,3.499663216643967e-05
-8.317531865031924e-06,-4.8773663365864195e-06,4.6536872105207294e-05
-2.4767864488239866e-06,-2.6610159693518654e-06,5.884559141122736e-05
1.1525286254254752e-06,-4.131102286919486e-06,7.020532939350232e-05
-3.954971816710895e-08,-7.91250840848079e-06,8.210850501200184e-05
-7.1917315835889895e-06,-8.441572390438523e-06,9.41394901019521e-05
-1.6405811038566753e-05,-7.425859166687587e-06,9.866384061751887e-05
-1.1826806257886346e-05,-9.712553946883418e-06,9.143351053353399e-05
6.490176474471809e-06,-1.027748567139497e-05,7.848865789128467e-05
1.656119457038585e-05,-4.747337243315997e-06,6.78326832712628e-05
1.0666625712474342e-05,1.0202405746895238e-06,6.14554519415833e-05
1.471168928901534e-07,2.6262341634719633e-06,5.335671085049398e-05
-9.96579274215037e-06,2.9388793336693197e-06,3.958584784413688e-05
-7.684426236664876e-06,3.7925128708593547e-06,3.1084640795597807e-05
1.062401588569628e-05,3.7979309581714915e-06,3.100742833339609e-05
2.0775307348230854e-05,5.463525212690001e-06,1.4746700799150858e-05
1.5228687516355421e-05,4.666708719014423e-06,-1.8262437151861377e-05
7.446196832461283e-06,2.672291884664446e-06,-4.395155337988399e-05
5.048168077337323e-06,2.41788666244247e-06,-5.2841212891507894e-05
1.0419222235213965e-05,5.7632587413536385e-06,-5.399645306169987e-05
1.4932089470676146e-05,6.940339517313987e-06,-6.047422357369214e-05
1.3426821169559844e-05,1.3002750165469479e-06,-7.144940900616348e-05
1.5432819054694846e-05,-1.8142652606911724e-06,-7.707049371674657e-05
1.3800975466438103e-05,-5.764201773672539e-07,-7.06445935065858e-05
8.822159543342423e-06,1.5702196378697408e-06,-5.253539711702615e-05
1.1143169103888795e-05,1.1623794762272155e-06,-3.0303197490866296e-05
1.0676798410713673e-05,-1.0840825552804745e-06,-1.4378450032381807e-05
2.5568374439899344e-06,-4.220949904265581e-06,-5.101434908283409e-06
1.3004555512452498e-06,-6.084576398279751e-06,4.662724677473307e-06
9.04199987417087e-06,-5.708458957087714e-06,1.6475152733619325e-05
1.2681852240348235e-05,-3.577348479666398e-06,2.3295853679883294e-05
9.474728358327411e-06,-5.581798632192658e-07,2.8727194148814306e-05
2.2706069557898445e-06,9.459332090955286e-07,3.7920552131254226e-05
-1.1519044846863835e-06,1.2955001515990716e-08,4.323354733060114e-05
4.061873369209934e-06,-2.9185175662860274e-06,3.919925802620128e-05
1.3375285561778583e-05,-4.7473654376517516e-06,3.503580956021324e-05
1.777286161086522e-05,-3.892319909937214e-06,4.2140865843975917e-05
1.6014091670513153e-05,-2.059900680251303e-06,5.400417649070732e-05
7.790687050146516e-06,-2.4231687802966917e-06,5.7173754612449557e-05
-3.2311907034454634e-06,-4.19452544520027e-06,5.015302303945646e-05
-3.9803030631446745e-06,-4.296440692996839e-06,4.667612665798515e-05
3.832116817648057e-06,-2.7077105642092647e-06,4.9297970690531656e-05
5.070061433798401e-06,-2.3616489670530427e-06,5.5238488130271435e-05
-9.234582307726669e-07,-2.653873934832518e-06,6.423943705158308e-05
-3.419457925701863e-06,-1.8486815633877995e-06,6.527155346702784e-05
-2.6715105150287854e-07,-9.843477073445683e-07,5.884184793103486e-05
3.3738272122718627e-06,-5.145936938788509e-07,5.5020482250256464e-05
-3.6793912272514717e-07,2.7161718207935337e-07,5.061701813247055e-05
-1.0022636161011178e-05,-1.666450799575614e-07,4.1045790567295626e-05
-1.0540505172684789e-05,5.48978562164848e-07,3.0148776204441674e-05
-1.7312981981376652e-06,1.377730200147198e-06,2.1652012947015464e-05
1.1157457038279972e-06,-8.917384661799588e-07,8.89035982254427e-06
1.7188895071740262e-06,-2.9068112326058326e-06,-1.4079153515922371e-05
1.1532679309311789e-06,-4.689003617386334e-06,-3.4318796679144725e-05
-3.997996827820316e-06,-5.244914973445702e-06,-4.2290852434234694e-05
-5.515066277439473e-06,-4.444733804120915e-06,-4.0589176933281124e-05
-9.616614988772199e-07,-4.582632755045779e-06,-3.5294313420308754e-05
3.241573949708254e-06,-3.766289410123136e-06,-3.1578147172695026e-05
6.011370714986697e-06,-1.6174230950127821e-06,-2.4642324206070043e-05
4.766451638715807e-06,-1.843340058371723e-08,-7.977571840456221e-06
-3.4084771414200077e-06,-1.2621577525351313e-06,1.4494194147118833e-05
-6.893676527397474e-06,-5.291253273753682e-06,3.322138582007028e-05
-2.4338370963050693e-07,-9.665051038609818e-06,3.975979780079797e-05
8.729697583476081e-06,-1.0897610081883613e-05,2.8393125830916688e-05
1.2446501386875752e-05,-7.788397851982154e-06,7.267959972523386e-06
8.547966899641324e-06,-4.545607680483954e-06,-1.2911444173369091e-05
-9.733874861694858e-08,-4.2296342144254595e-06,-2.664227577042766e-05
-1.1003395457009901e-06,-8.969466762209777e-06,-3.2907206332311034e-05
7.34077093511587e-06,-1.4671249118691776e-05,-3.0403205528273247e-05
1.4528402971336618e-05,-1.5815421647857875e-05,-1.672312464506831e-05
1.4655243830929976e-05,-1.5427165635628626e-05,1.5676160955990781e-06
5.598546067631105e-06,-1.5173692190728616e-05,2.6077208531205542e-05
-4.646767592930701e-06,-1.5044085557747167e-05,4.1130278987111524e-05
-8.342994078702759e-06,-1.5429406630573794e-05,4.070621434948407e-05
-9.780596883501858e-06,-1.1085907317465171e-05,3.9387457945849746e-05
-1.77950114448322e-05,1.7835327525972389e-06,4.164571510045789e-05
-1.8609354810905643e-05,1.3451287486532237e-05,4.493127198657021e-05
-7.47453805161058e-06,1.2267627425899263e-05,3.771776755456813e-05
2.9330808501981664e-06,2.356962340854807e-06,2.9753462513326667e-05
5.297520601743599e-06,-4.41859947386547e-06,2.865437818400096e-05
-5.35011258762097e-06,-2.937876615760615e-06,3.2002451916923746e-05
-1.6842821423779242e-05,1.7892493815452326e-06,2.8686161385849118e-05
-1.523369883216219e-05,4.926112069369992e-06,1.561383396619931e-05
-5.091839739179704e-06,5.374478860176168e-06,1.90876971828402e-06
6.049791636542068e-07,2.659221763678943e-06,-3.443434025030001e-06
2.492297426215373e-06,-1.963860086107161e-06,-4.8895826694206335e-06
-1.006517464929857e-07,-4.332020125730196e-06,-1.1048475244024303e-05
-6.190693511598511e-06,-4.621384960046271e-06,-1.8999373423866928e-05
-4.550352514343103e-06,-4.570408236759249e-06,-2.5950270355679095e-05
7.525951787101803e-06,-2.730806045292411e-06,-2.8053216738044284e-05
1.3832356671628077e-05,3.782529063300899e-07,-2.417833275103476e-05
8.678839549247641e-06,1.702489385024819e-06,-1.5159400390984956e-05
1.3910495226809871e-06,5.889228873456887e-07,-4.373139745439403e-06
-3.7520158002735116e-06,-4.446341961283906e-07,3.0944079298933502e-06
-1.677518525866617e-06,-6.906394673933391e-07,5.118424269312527e-06
6.170977485453477e-06,7.801491506143066e-07,7.849567737139296e-06
9.961831892724149e-06,1.497296125307912e-06,1.009132665785728e-05
7.661909876333084e-06,9.072133480003686e-07,1.7225409465027042e-05
9.454450264456682e-06,3.3803642054408556e-06,3.296757131465711e-05
1.6667599993525073e-05,8.113544936350081e-06,5.197669452172704e-05
1.8131833712686785e-05,1.1184499271621462e-05,6.573489372385666e-05
4.710021130449604e-06,1.0654452125891112e-05,7.000112964306027e-05
-1.4460808415606152e-05,8.342133696714882e-06,6.43856983515434e-05
-1.597129084984772e-05,5.257401880953694e-06,5.746879105572589e-05
-7.999226454558084e-07,1.5352023865489173e-06,5.939706170465797e-05
1.0106827176059596e-05,2.137891783604573e-07,6.886299524921924e-05
9.577627679391298e-06,2.0468571619858267e-06,7.40212417440489e-05
1.3966983942736988e-06,2.683687853277661e-06,6.474352994700894e-05
-5.197706741455477e-06,1.920565409818664e-06,4.926204201183282e-05
-1.2066974477420445e-06,7.046544965305657e-07,3.656463013612665e-05
1.098909524444025e-05,-1.5246212115016533e-06,2.2081692804931663e-05
1.9325127141200937e-05,-1.588385998729791e-06,2.6601608169585234e-06
1.6905991287785582e-05,1.4803485548497974e-08,-1.2490684639487881e-05
5.483027507580118e-06,-3.0749549750908045e-07,-1.6275065718218684e-05
-6.802093139413046e-06,-2.567149977039662e-06,-1.3382655197347049e-05
-6.4795417529239785e-06,-3.340672265039757e-06,-1.4737733181391377e-05
5.768927167082438e-06,-2.4730693439778406e-06,-2.091939859383274e-05
1.3255147678137291e-05,-1.1604195151448948e-06,-2.4416480300715193e-05
1.2985797184228431e-05,1.0915824759649695e-06,-2.2154457838041708e-05
8.706313565198798e-06,4.686479314841563e-06,-1.7459959053667262e-05
2.8299592713665334e-07,6.451431090681581e-06,-1.3060938726994209e-05
-1.4545818203259842e-06,3.386716343811713e-06,-1.2615964806172997e-05
7.255357559188269e-06,-1.2703360425803112e-06,-1.9037563106394373e-05
1.3615403986477759e-05,-1.9653992922030739e-07,-2.8683640266535804e-05
1.3268176189740188e-05,3.2879911486816127e-06,-3.4334581869188696e-05
1.0070528333017137e-05,2.8411550374585204e-06,-2.903799213527236e-05
5.027045517635997e-06,-1.03994898381643e-06,-1.747134047036525e-05
-5.21941672104731e-07,-2.0607674287020927e-06,-8.278219866042491e-06
-9.022487574839033e-06,1.1950774023716804e-06,-2.540967443565023e-06
-2.006329123105388e-05,5.00640908285277e-07,1.1111587809864432e-06
-1.5392193745356053e-05,-3.4573172342788894e-06,1.022724336507963e-05
2.092710019496735e-06,-6.449909051298164e-06,2.0714391212095506e-05
1.1705915312631987e-05,-5.130984845891362e-06,2.9200140488683246e-05
1.0831177860382013e-05,-1.8462521893525263e-06,3.535242649377324e-05
-3.708404960889311e-07,-8.558274089409679e-07,4.0350216295337304e-05
-1.3683627912541851e-05,-1.3826584108755924e-06,4.895590609521605e-05
-1.7315656805294566e-05,-1.0051860499515897e-06,6.045103145879693e-05
-1.15284783532843e-05,-1.4250966842155322e-06,6.895821570651606e-05
-4.734884441859322e-06,-4.058884314872557e-06,7.172813639044762e-05
-1.1811695088681518e-07,-5.798825441161171e-06,7.113925676094368e-05
-1.6602737105131382e-06,-6.332695193123072e-06,6.525171920657158e-05
-1.055775737768272e-05,-6.3157121985568665e-06,5.346464240574278e-05
-1.6964437236310914e-05,-4.081767656316515e-06,4.10129978263285e-05
-1.3744284842687193e-05,4.4075338223592553e-07,3.3292068110313267e-05
-5.63926460017683e-06,2.820333065756131e-06,2.5588300559320487e-05
1.6720036910555791e-06,2.568836180216749e-06,1.792068906070199e-05
2.8284764539421303e-06,2.7838316327688517e-06,1.7522297639516182e-05
-5.97612461206154e-06,2.1805008145747706e-06,2.3444692487828434e-05
-1.0838431080628652e-05,3.17161664042942e-07,2.4576478608651087e-05
4.841993472837203e-07,-6.953242603913168e-08,1.6747246263548732e-05
1.5362138583441265e-05,2.247139946121024e-06,5.7237061810155865e-06
1.9564204194466583e-05,5.552299171540653e-06,3.823084171017399e-06
1.508504919911502e-05,4.120319772482617e-06,1.2287567187740933e-05
7.524011834902922e-06,5.618134082396864e-07,8.800399882602505e-06
3.3824624097178457e-06,-7.959425829540123e-07,-9.095184395846445e-06
-4.414874638314359e-06,-3.223457269996288e-07,-2.565044633229263e-05
-1.4193034076015465e-05,6.508125807158649e-07,-3.288287916802801e-05
-9.714959560369607e-06,1.2460344578357763e-07,-3.71209935110528e-05
3.4378108466626145e-06,-1.771938741512713e-06,-4.801040267921053e-05
1.0222819582850207e-05,-4.140447344980203e-06,-5.114238228998147e-05
6.5002973315131385e-06,-4.257554337527836e-06,-3.954469502787106e-05
-2.838047066688887e-06,-1.7287984519498423e-06,-1.8215712771052495e-05
-1.0828402082552202e-05,2.1157402443350293e-06,1.9162837361363927e-06
-6.951962404855294e-06,4.021061613457277e-06,1.545144732517656e-05
7.314324193430366e-06,3.738446366696735e-06,2.1995849238010123e-05
1.4212823771231342e-05,3.608603947213851e-06,2.2077943867770955e-05
8.639380212116521e-06,4.216260094835889e-06,1.6993108147289604e-05
-7.377768156402453e-07,2.2642439034825657e-06,9.986767508962657e-06
-8.953910764830653e-06,-2.449036401230842e-06,8.921707376430277e-06
-1.0392448530183174e-05,-5.923946446273476e-06,1.5297358913812786e-05
-2.8215874863235513e-06,-5.8649538914323784e-06,2.6563053324935026e-05
3.182265572831966e-06,-5.331431111699203e-06,3.778428435907699e-05
5.911952598580683e-07,-6.780404874007218e-06,4.6347846364369616e-05
-1.0363204637542367e-05,-8.018349944904912e-06,5.092763603897765e-05
-2.1561581888818182e-05,-6.419415512937121e-06,5.296082963468507e-05
-1.6480975318700075e-05,-1.5309532273022342e-06,5.080627670395188e-05
4.015641025034711e-06,1.9922983938158723e-06,4.968084249412641e-05
1.7589027265785262e-05,2.9239115519885672e-06,5.0292837840970606e-05
1.7348258552374318e-05,1.854148763413832e-06,4.573020851239562e-05
1.117874762712745e-05,3.254803004892892e-06,3.602198921726085e-05
4.504013304540422e-06,2.953719786091824e-06,2.8229269446455874e-05
8.368635462829843e-06,3.435723172628968e-08,2.2695292500429787e-05
1.1757567335735075e-05,-6.342949063764536e-07,1.3328432032722048e-05
2.132752342731692e-06,-7.095694627423654e-07,-1.618084155552424e-07
-1.5094727814357611e-06,1.5049768080643844e-06,-1.3310116628417745e-05
7.068938884913223e-06,1.584152300893038e-06,-1.9270750271971337e-05
1.2853600310336333e-05,-4.308622294502129e-07,-1.4499465578410309e-05
1.2457737284421455e-05,-2.4205969566537533e-06,-1.1076359442085959e-05
1.0020002264354844e-05,-2.669589321158128e-06,-1.5110866115719546e-05
7.184344212873839e-06,-1.5639204775652615e-06,-2.3624505047337152e-05
8.273446837847587e-06,-1.721797275422432e-06,-3.3179152524098754e-05
1.4277964510256425e-05,-2.3269828943739412e-06,-3.6078014090890065e-05
1.7865226254798472e-05,-2.6794123186846264e-06,-3.243500032112934e-05
1.4368164556799456e-05,-3.6701144381368067e-06,-2.822224450937938e-05
6.161830242490396e-06,-5.23001654073596e-06,-2.3207408958114684e-05
-3.716198534675641e-06,-5.2804534789174795e-06,-1.2179125405964442e-05
-7.798593287589028e-06,-4.266411906428402e-06,-5.748109401793045e-07
-3.5738937640417134e-06,-5.951849743723869e-06,2.9251746127556544e-06
1.5099511756488937e-06,-1.1212197932763956e-05,-1.327972398712518e-07
5.19242985319579e-06,-1.3979218238091562e-05,3.302701315988088e-06
5.162775323697133e-06,-1.212914412462851e-05,1.808267188607715e-05
-3.976647349190898e-06,-8.430271009274293e-06,3.659807043732144e-05
-1.178978527605068e-05,-7.6122296377434395e-06,4.966996857547201e-05
-8.361475011042785e-06,-9.610434972273652e-06,5.228958616498858e-05
3.9764091752658715e-07,-1.0470038432686124e-05,5.468756353366189e-05
6.209588264027843e-06,-1.0041355380963068e-05,6.316100916592404e-05
5.946874807705171e-06,-9.520324056211393e-06,7.695178646827117e-05
2.463573537170305e-06,-5.704888280888554e-06,9.262460662284866e-05
3.627142859841115e-06,-3.296335535196704e-06,9.806326852412894e-05
1.7526883766549872e-06,-2.764925966403098e-06,8.960154082160443e-05
-7.263613952090964e-06,5.787578061244858e-07,7.618169183842838e-05
-7.1156541707750876e-06,3.7916643123026006e-06,6.549128738697618e-05
2.1377686607593205e-06,3.956412911065854e-06,4.917721889796667e-05
9.112241059483495e-06,8.106567292998079e-07,2.9762486519757658e-05
9.298497388954274e-06,4.437591201167379e-07,1.3064129234408028e-05
4.7050853027030826e-06,1.8605761624712613e-06,-8.4538205555873e-06
-1.9767919638979947e-06,2.1361374820116907e-06,-3.430583456065506e-05
-1.7889284436023445e-06,2.2079805148678133e-06,-5.0259252020623535e-05
4.274407729099039e-06,3.1287265755963745e-06,-4.792703111888841e-05
1.005317517410731e-05,4.946941317029996e-06,-3.326903606648557e-05
1.2838652764912695e-05,6.007290267007193e-06,-2.047114321612753e-05
6.532706265716115e-06,5.436740138975438e-06,-1.9568529751268215e-05
-8.563448318454903e-06,4.027571321785217e-06,-2.7744006729335524e-05
-1.7031794413924217e-05,3.2748796456871787e-06,-3.765383007703349e-05
-6.236350145627512e-06,2.536720330681419e-06,-4.6188572014216334e-05
9.638688425184228e-06,2.504300198324927e-07,-5.11483485752251e-05
1.4959594409447163e-05,-3.5800235309579875e-06,-4.912665826850571e-05
8.250021892308723e-06,-4.644878117687767e-06,-4.144457125221379e-05
-1.4786703559366288e-06,-6.433301109609602e-07,-2.8640704840654507e-05
4.965640698628704e-08,4.948488367517712e-06,-1.173820965050254e-05
9.920869160850998e-06,6.651568128290819e-06,4.93685274705058e-06
1.1177124179084785e-05,2.0580437194439583e-06,1.6009133105399087e-05
2.573524852778064e-06,-4.884285317530157e-06,2.743157892837189e-05
-8.272373634099495e-06,-8.083490683929995e-06,4.0671173337614164e-05
-1.4437714526138734e-05,-8.311873898492195e-06,5.322305150912143e-05
-1.2453582712623756e-05,-1.0042148460343014e-05,6.242169183678925e-05
-1.2649808923015371e-05,-1.286633141717175e-05,6.98034928063862e-05
-2.0258121367078274e-05,-1.3815190868626814e-05,7.817059668013826e-05
-2.1319821826182306e-05,-1.086512111214688e-05,8.387482375837862e-05
-1.2029643585265148e-05,-6.835564818175044e-06,8.478821109747514e-05
-9.55532868829323e-07,-4.574550985125825e-06,7.978676148923114e-05
4.747064849652816e-06,-3.389883431736962e-06,6.908305658726022e-05
-4.131451078137616e-06,-2.2396091026166687e-06,5.376985791372135e-05
-1.933216663019266e-05,-1.284744257645798e-06,4.0831411752151325e-05
-1.862268072727602e-05,-3.3767790341698856e-07,3.344911601743661e-05
-2.901538891819655e-06,1.63961135513091e-06,3.1380994187202305e-05
1.0196798029937781e-05,3.1578542802890297e-06,3.1263934943126515e-05
1.4581951290892903e-05,3.504102778606466e-06,2.838927866832819e-05
1.2300464732106775e-05,3.93487562178052e-06,2.1247915356070735e-05
5.465357389766723e-06,4.825872110814089e-06,1.1283143066975754e-05
6.196155482030008e-06,5.664200216415338e-06,3.5469961403578054e-06
1.639278525544796e-05,5.4563311095989775e-06,4.080799953953829e-06
2.0705745555460453e-05,4.299375177652109e-06,8.764850463194307e-06
1.5124143828870729e-05,3.556073806976201e-06,7.815058779669926e-06
6.738009687978774e-06,5.064080596639542e-06,2.369790308875963e-06
-2.0070854134246474e-06,6.242803920031292e-06,-4.708295819000341e-06
-1.1334102509863442e-06,5.0579019443830475e-06,-9.822993888519704e-06
8.97910194908036e-06,4.899921805190388e-06,-1.142687597166514e-05
1.2431558388925623e-05,6.75936325933435e-06,-1.5736461136839353e-05
8.97518839337863e-06,6.669531558145536e-06,-2.6110370527021587e-05
3.883047611452639e-06,3.55196425516624e-06,-4.131532114115544e-05
-1.73125704350241e-06,4.014545083919074e-06,-5.564812818192877e-05
-4.846455340157263e-06,2.500937625882216e-06,-5.322443394106813e-05
-4.442445515451254e-06,-2.395578349023708e-06,-3.64268671546597e-05
-7.835327778593637e-06,-4.9940290409722365e-06,-1.9302062355563976e-05
-4.934585831506411e-06,-6.848660632385872e-06,-1.1217946394026512e-06
3.597239128794172e-06,-7.426051524817012e-06,1.8630536942509934e-05
8.021589565032627e-06,-7.816367542545777e-06,3.6613739212043583e-05
8.777987204666715e-06,-7.446204108418897e-06,4.704929597210139e-05
3.6593580716726137e-06,-6.849483725090977e-06,5.417292413767427e-05
-4.32776960224146e-06,-7.405877568089636e-06,6.172909343149513e-05
-5.2528730520862155e-06,-1.017960221361136e-05,6.65473926346749e-05
1.6384229866162059e-06,-1.2691943993559107e-05,6.315851351246238e-05
6.0468514675449114e-06,-1.4369000382430386e-05,5.554103699978441e-05
5.006166247767396e-06,-1.4824712707195431e-05,5.14256716996897e-05
-1.3599229760075104e-06,-1.3801906789012719e-05,5.017103467253037e-05
-9.699364454718307e-06,-1.2220534699736163e-05,4.961705781170167e-05
-1.2815927220799495e-05,-1.0873972314584535e-05,4.674571755458601e-05
-6.361120995279634e-06,-9.672780834080186e-06,4.2164821934420615e-05
1.8646868511495995e-06,-7.409753834508592e-06,4.094370160601102e-05
5.475602392834844e-06,-6.136955562396906e-06,4.434705988387577e-05
6.040103244231432e-07,-6.5835715759021696e-06,4.425360384630039e-05
-1.1673627341224346e-05,-7.177407951530768e-06,3.924562770407647e-05
-1.603654345672112e-05,-3.717866320585017e-06,3.599024785216898e-05
-6.129727353254566e-06,5.722474725189386e-06,3.3665113733150065e-05
5.3870949159318116e-06,1.3811029020871501e-05,1.946713928191457e-05
1.0341822417103685e-05,1.0285714779456612e-05,-3.917174581147265e-06
6.735444003425073e-06,-5.361684998206329e-07,-2.73304212896619e-05
1.0260675935569452e-06,-5.9065891946374904e-06,-4.4072185119148344e-05
4.290412107366137e-06,-3.855912382277893e-06,-5.0578408263390884e-05
3.897462192981038e-06,6.950961051188642e-07,-4.851529956795275e-05
-6.107811714173295e-06,3.916862169717206e-06,-4.360315506346524e-05
-5.6744206631265115e-06,4.816724413103657e-06,-4.165756399743259e-05
3.497254965623142e-06,5.543613951886073e-06,-4.364593405625783e-05
9.71271947491914e-06,5.698841960111167e-06,-4.618492312147282e-05
1.1769118827942293e-05,6.318021405604668e-06,-4.102728416910395e-05
4.930695013172226e-06,5.79838888370432e-06,-3.3585056371521205e-05
-6.436202966142446e-06,4.5812007556378376e-06,-2.4434511942672543e-05
-6.684063919237815e-06,2.8951744752703235e-06,-1.2878253983217292e-05
4.0494551285519265e-06,-5.056671739112062e-07,1.9800590962404385e-06
1.1660011296044104e-05,-1.989517841138877e-06,1.855877781054005e-05
1.431569762644358e-05,-2.011166088777827e-06,3.006674705829937e-05
1.1148589692311361e-05,-1.3991340210850467e-06,3.5538723750505596e-05
6.278488058342191e-07,5.931042323936708e-07,4.2623338231351227e-05
-5.997482730890624e-06,1.3961119975647307e-06,5.5118027376011014e-05
-1.6292419786623213e-06,3.641506793883309e-07,6.565984222106636e-05
3.458772880549077e-06,1.5636882153557963e-06,6.750095053575933e-05
2.1658881905750604e-06,4.2196452341158874e-06,6.506499630631879e-05
-4.2696474338299595e-06,6.361270152410725e-06,6.450079672504216e-05
-1.2021373549941927e-05,7.116314009181224e-06,6.529837992275134e-05
-1.0462419595569372e-05,6.8232097873988096e-06,6.777176895411685e-05
2.885547019104706e-06,5.5438713388866745e-06,6.727122672600672e-05
1.2482907550293021e-05,2.1319958705134923e-06,6.187961844261736e-05
1.2052125384798273e-05,-2.7138759151057457e-07,5.3569372539641336e-05
6.61445892546908e-06,-1.0216699308784882e-07,4.5405580749502406e-05
1.405841544510622e-06,1.4675415513920598e-06,3.1291903724195436e-05
2.1838327484147158e-06,3.3929904930118937e-06,1.0713979463616852e-05
2.7297376163915033e-06,3.542187641869532e-06,-1.1953145985899027e-05
-4.044145498482976e-06,2.995038130393368e-06,-3.207533518434502e-05
-4.1704115574248135e-06,3.089027131863986e-06,-4.835194340557791e-05
4.879403604718391e-06,2.5216993435606128e-06,-5.985534153296612e-05
9.542494808556512e-06,2.134705255230074e-06,-6.227334961295128e-05
8.425485248153564e-06,1.5989556914064451e-06,-6.023016248946078e-05
9.403188983014843e-07,2.0840448087255936e-06,-5.593409878201783e-05
-5.190278898226097e-06,5.105531272420194e-06,-4.763913239003159e-05
8.711854206921998e-07,6.410016339941649e-06,-3.3441254345234483e-05
1.3249404219095595e-05,3.426093371672323e-06,-1.8042983356281184e-05
2.0289973690523766e-05,-1.679526917541807e-07,-7.19210629540612e-06
1.8928178178612143e-05,-2.501533799659228e-06,-3.6432729189073143e-07
7.094845841493225e-06,-3.6710173390019918e-06,6.021416083967779e-06
-1.0540810762904584e-05,-3.122447878922685e-06,1.1272348274360411e-05
-1.69173890753882e-05,-1.4274864952312782e-06,1.5058776625664905e-05
-4.779517894348828e-06,-4.270967508546164e-07,2.7056988983531483e-05
9.721231435833033e-06,-2.0841407604166307e-06,4.835370782529935e-05
1.4835106412647292e-05,-5.38900758328964e-06,6.651719013461843e-05
1.2359818356344476e-05,-8.610887562099379e-06,7.443020876962692e-05
2.2219924176170025e-06,-1.021278694679495e-05,7.801491301506758e-05
-5.132253136252984e-06,-9.442923328606412e-06,7.906078099040315e-05
-1.6213737126236083e-06,-8.782567419984844e-06,7.305664621526375e-05
3.854225269606104e-06,-9.826184395933524e-06,6.169402331579477e-05
5.108985078550177e-06,-1.2151687769801356e-05,5.3111754823476076e-05
6.703403414576314e-07,-1.2937318388139829e-05,4.492661901167594e-05
-5.272352609608788e-06,-1.0669160474208184e-05,2.8463833587011322e-05
-2.6764780614030315e-06,-9.470199074712582e-06,1.7503321942058392e-05
-2.4060241230472457e-06,-7.118067060218891e-06,1.3756197404291015e-05
-1.49774650708423e-05,-3.881933935190318e-06,8.727105523576029e-06
-1.7804937670007348e-05,-2.6523614451434696e-06,3.356006118337973e-06
-4.280525445210515e-06,-4.513240583037259e-06,1.4017695093571092e-06
4.290259312256239e-06,-8.953315045800991e-06,-1.5247831015585689e-06
1.9773826807067962e-06,-8.818773494567722e-06,-8.156315743690357e-06
-4.348692982603097e-06,-6.428314463846618e-06,-1.2097571016056463e-05
-9.290994057664648e-06,-5.0393214223731775e-06,-1.2984981367480941e-05
-7.198563707788708e-06,-3.603705408750102e-06,-1.0809170817083213e-05
1.242153757630149e-07,-1.793699311747332e-06,-7.646054655197076e-06
6.29688202025136e-06,1.2709412189337854e-08,-7.648183782293927e-06
1.0033309990831185e-05,-5.378367973207787e-07,-1.4443126019614283e-05
4.7725188778713346e-06,-2.632861423990107e-06,-2.4915902031352744e-05
-7.015839855739614e-06,-4.348448783275671e-06,-3.180293060722761e-05
-8.854017323756125e-06,-4.275430001143832e-06,-2.900047729781363e-05
4.223799351166235e-06,-4.024434929306153e-06,-1.8562159311841242e-05
1.6704068912076764e-05,-4.0357008401770145e-06,-1.059670375980204e-05
1.806661930459086e-05,-3.7949539546389133e-06,-1.1357840776327066e-05
9.389629667566624e-06,-2.918129439422046e-06,-1.577986404299736e-05
-3.1917729756969493e-06,-2.2341691874316894e-06,-1.755479934217874e-05
-4.634546712622978e-06,-2.927952209574869e-06,-1.1103705219284166e-05
6.271556230785791e-06,-1.171292979051941e-06,8.254122803919017e-06
1.1406599696783815e-05,1.0946388329102774e-06,3.653844760265201e-05
7.984626790857874e-06,1.2512949751908309e-06,6.158929318189621e-05
7.5008779276686255e-06,3.4232880352647044e-06,7.560368248960003e-05
2.9253505999804474e-06,1.1630909284576774e-06,8.36318067740649e-05
-2.115856574391728e-07,-4.499885562836425e-06,9.547027002554387e-05
-3.7126972074474907e-06,-6.117334578448208e-06,0.0001026964164339006
-1.453488312108675e-05,-4.248960522090783e-06,9.715249325381592e-05
-1.1611836271185894e-05,-3.9837113945395686e-06,8.814657485345379e-05
-3.054185810924537e-07,-6.169540483824676e-06,7.630290929228067e-05
8.09381435828982e-06,-5.983461051073391e-06,5.802075611427426e-05
1.3206338735471945e-05,-6.166427283460507e-06,3.9090769860194996e-05
1.0389077942818403e-05,-5.760065505455714e-06,2.430949461995624e-05
-2.5390025371052616e-07,-4.311631528253201e-06,9.85764927463606e-06
-4.974032890459057e-06,-2.4196669983211905e-06,-5.615675490844296e-06
2.3643403892492643e-06,-3.1766332995175617e-06,-1.9465003788354807e-05
1.0861650480364915e-05,-4.500292106968118e-06,-2.3534001229563728e-05
1.3285503882798366e-05,-3.310246938781347e-06,-1.788974623195827e-05
9.683158168627415e-06,-5.249276568974892e-07,-1.0239068615192082e-05
3.159607786074048e-06,6.76120350817655e-07,-3.388722007002798e-06
2.0734967165481066e-06,-3.1431710567630944e-07,-7.194886393335764e-07
1.2483664249884896e-05,-3.775926415983122e-07,-5.844781298947055e-06
1.9940633137593977e-05,2.0263569240341894e-06,-1.53537948790472e-05
1.7673875845503062e-05,6.152610694698524e-06,-2.5503712095087394e-05
1.0788347935886122e-05,8.180440090654884e-06,-3.7109668483026326e-05
1.2571396155180992e-06,7.32824901206186e-06,-4.5837477955501527e-05
-1.977303099920391e-06,4.216862180328462e-06,-4.233033178024925e-05
3.3406797683710465e-06,1.6758352785473107e-06,-2.3359458282357082e-05
6.123049388406798e-06,3.5536302789296315e-07,-1.6480690874232096e-06
4.096902557648718e-06,1.2957976025518292e-08,1.5766250726301223e-05
4.83610961055092e-07,8.450583663943689e-07,3.1763946026330814e-05
-3.116211928499979e-06,2.5313254354841774e-06,3.9951941289473325e-05
-4.024741429020651e-06,3.81553854822414e-06,3.497646684991196e-05
-4.189716491964646e-06,4.62308753412799e-06,2.8533551812870428e-05
-9.65222261584131e-06,3.466690486675361e-06,2.6447902200743556e-05
-5.7525603551766835e-06,-6.181622893564054e-07,2.2369718863046728e-05
4.973103841621196e-06,-6.9632842496503145e-06,1.8288230421603657e-05
7.464715963578783e-06,-9.504664376436267e-06,1.787711153156124e-05
3.168054718116764e-06,-6.1950740928296e-06,2.3051028620102443e-05
-8.420785889029503e-06,-2.950133421109058e-06,3.3715776226017624e-05
-1.9527295080479234e-05,-2.3593490823259344e-06,4.695495590567589e-05
-1.588589839229826e-05,-1.3535019434129936e-06,5.587565101450309e-05
4.6809941522951704e-07,6.029322463518838e-08,5.519382830243558e-05
1.2282790521567222e-05,-4.801933073395048e-08,4.559904846246354e-05
1.585466816322878e-05,1.0051435310742818e-06,3.316330912639387e-05
1.0611538527882658e-05,3.0496075851260684e-06,2.529661651351489e-05
-2.9519264899136033e-07,3.546750122040976e-06,2.4616194423288107e-05
-3.851323526760098e-06,1.1435374744905857e-06,2.7743451937567443e-05
3.9099900277506094e-06,-6.59476370401535e-07,2.9124208595021628e-05
1.0801781172631308e-05,4.0528908584747114e-07,2.603193024697248e-05
1.1325230843794998e-05,1.5226298728521215e-06,1.8914781321655028e-05
7.521795396314701e-06,1.2954022565736523e-07,1.0954016033792868e-05
-1.0618140322549152e-06,-1.551125308196788e-07,7.301156074390747e-06
-5.3465373639483005e-06,1.9030647990803118e-06,5.4386637202696875e-06
3.1458425837627146e-06,3.6844294299953617e-06,-1.7852321434475016e-06
1.3190288882469758e-05,2.7418416266300483e-06,-1.459515897295205e-05
1.674169470788911e-05,2.6430745947436662e-06,-3.3005988370859995e-05
1.3959522220829967e-05,4.7724151954753324e-06,-4.5107266487320885e-05
8.821782103041187e-06,1.051899403137213e-06,-4.218232788844034e-05
4.229597379890038e-06,-2.777662530206726e-06,-3.5899309295928106e-05
-6.971670245548012e-06,-2.97738461085828e-06,-3.053928958252072e-05
-1.9192435502191074e-05,-6.160014436318306e-07,-1.8964308765134774e-05
-1.5629211702616885e-05,2.0550942281261086e-06,-3.576530843929504e-06
-3.433533265706501e-06,1.3376162542044767e-06,1.2636762221518438e-05
2.866271870516357e-06,-1.5312332379835425e-06,2.7754898837883957e-05
3.2986422411340754e-06,-4.053804332215805e-06,3.930342791136354e-05
-4.367047949926928e-06,-2.898322463806835e-06,4.71826788270846e-05
-1.3252332792035304e-05,-2.5778588224056875e-06,5.36697989446111e-05
-1.1511117008922156e-05,-5.2447057896642946e-06,6.234301690710708e-05
-3.2375658065575408e-06,-8.227619218814652e-06,6.36261684121564e-05
-3.223052047474084e-08,-9.933979526977055e-06,4.7376488510053605e-05
-1.4063701314626087e-07,-1.0939555068034679e-05,2.3500142560806125e-05
-2.4712880986044183e-06,-8.076863196038175e-06,1.239824359799968e-05
-8.403158972214442e-06,-5.7903503147827e-07,1.9135246475343592e-05
-1.0245333214697894e-05,6.353168828354683e-06,3.1414307159138843e-05
-4.017254013888305e-06,6.8263061621109955e-06,3.642498268163763e-05
-1.7000063223804318e-07,2.093409193548723e-06,3.3597265428397804e-05
-1.6890935512492433e-06,-7.407169277939829e-07,2.99302046187222e-05
-4.934424396196846e-06,-6.10664983469178e-07,2.8946093152626418e-05
-9.021460755320732e-06,7.243737059070554e-07,2.5615925551392138e-05
-3.99126338379574e-06,-1.3794731046345987e-07,1.7280055544688366e-05
1.083637289411854e-05,-4.606953552865889e-06,1.3136396773916204e-05
2.0177725673420355e-05,-4.913695647701388e-06,1.4570741768693551e-05
1.7925549400388263e-05,-2.018697841776884e-06,9.329169188276865e-06
1.2752480870403815e-05,-1.4377732213688432e-06,-1.0781765922729392e-05
6.052754088159418e-06,-2.643608013386256e-06,-2.8876218493678607e-05
6.307962394203059e-06,-3.5452294468996115e-06,-3.1986804970074445e-05
5.3091034715180285e-06,-3.686095908506104e-07,-2.713918365770951e-05
-5.324387075233972e-06,3.2210832614509854e-06,-2.2689411707688123e-05
-2.8504580313892802e-06,1.8268749499839032e-06,-3.0232587960199453e-05
5.322619472281076e-06,-8.014573040782125e-07,-3.226381159038283e-05
8.620031621831004e-06,-1.4602676401409553e-06,-2.0010500520584174e-05
1.1779331543948501e-05,-2.0098395907552913e-06,-7.410254966089269e-06
6.2157837419363204e-06,-7.45978468330577e-07,5.681342372554354e-06
-6.988764653215185e-06,-4.1495607661090617e-07,1.88691628864035e-05
-8.34184538689442e-06,-2.668085244295071e-06,2.5121426006080583e-05
2.8424094580259407e-06,-6.0809043134213425e-06,2.0485205823206343e-05
8.308283213409595e-06,-5.366246568883071e-06,6.509182640002109e-06
3.91700268664863e-06,-2.8449933324736776e-06,-8.43669749883702e-06
-2.1135113001946593e-06,-1.125548578784219e-06,-1.4593114428862464e-05
-6.3165334722725675e-06,1.232972522302589e-06,-1.0380171261203941e-05
-7.012883543211501e-06,3.260299081375706e-06,7.478653515136102e-06
3.5301218304084614e-07,3.5889638638764154e-06,3.34051983372774e-05
9.01143630471779e-06,2.139403250112082e-06,5.31433142896276e-05
9.097468137042597e-06,9.378799745718425e-07,6.545762153109536e-05
1.6906517430470558e-06,-1.142716087088047e-06,8.048880408750847e-05
-6.7984769884787966e-06,-4.201622232358204e-06,9.17202269192785e-05
-8.8997630882659e-06,-7.68065274314722e-06,9.035923721967265e-05
-3.145753453281941e-06,-6.814295375079382e-06,8.365546091226861e-05
-1.410450778394079e-07,-1.6219154304053518e-06,6.854115054011345e-05
-2.0662932911363896e-06,7.771540708745306e-07,3.693630060297437e-05
-5.457903625938343e-06,-1.1492014664327144e-06,5.7666311477078125e-06
-3.711804311024025e-06,-7.306775387405651e-06,-1.3221106200944632e-06
3.849622316920431e-06,-1.1186674782948103e-05,4.56381167168729e-06
4.427442490850808e-06,-3.898792783729732e-06,8.60436284710886e-06
-3.625117187766591e-06,3.4792574297171086e-06,1.2116660400351975e-05
-2.1216039840510348e-06,1.4742477105755825e-06,6.923200999153778e-06
9.68540280155139e-06,-3.5117200241074897e-06,-5.3891217248747125e-06
1.5132593944144901e-05,-4.46373769591446e-06,-1.5751102182548493e-05
1.2488696484069806e-05,-2.744137191257323e-06,-1.5509001968894154e-05
4.094873474969063e-06,-3.950205140768048e-08,-8.723647624719888e-06
-7.048478892102139e-06,1.7374416074744659e-06,-6.9827192419325e-06
-9.643789780966472e-06,2.1977234609948937e-06,-1.7105150618590415e-05
-2.8732206374115776e-06,1.2055603519911529e-06,-3.501608080114238e-05
2.6862535378313623e-06,-1.1721295578581703e-07,-4.704746606876142e-05
6.755542472092202e-06,-1.4810975699219853e-06,-4.809469828614965e-05
4.744747911900049e-06,-3.3170283586514415e-06,-3.7763591535622254e-05
-6.20425680608605e-06,-3.9677106542512774e-06,-2.1021936845500022e-05
-1.261143643205287e-05,-2.9082259516144404e-06,-7.902742254373152e-06
-5.1388456085987855e-06,-1.4852081449134857e-06,-3.238305680497433e-06
3.3540482036187313e-06,-2.2437816369347274e-06,5.044379349783412e-07
5.049986157246167e-06,-6.023604782967595e-06,5.563010290643433e-06
3.115025947408867e-06,-8.807100130070467e-06,6.932108590262942e-06
-4.974729563400615e-06,-8.711243935977109e-06,5.3559897423838265e-06
-9.123868949245661e-06,-9.221108484780416e-06,1.8036829715128988e-05
-7.945397442199464e-07,-9.970687642635312e-06,4.5326287363423035e-05
6.573411610588664e-06,-1.0459516488481313e-05,6.457161362050101e-05
1.0882986316573806e-05,-1.0050801392935682e-05,7.152805483201519e-05
1.1870901289512403e-05,-9.224948371411301e-06,8.014302875380963e-05
7.429609013342997e-06,-8.376625373784918e-06,9.267662971979007e-05
8.215904927055817e-06,-6.831480732216733e-06,0.0001007651662803255
2.4022997422434855e-06,-4.360354068921879e-06,9.787270391825587e-05
-1.5010718925623223e-05,-1.7974309685087064e-06,8.732993592275307e-05
-1.632227395020891e-05,3.4227375635964563e-06,7.474116137018427e-05
3.7920578677130834e-08,7.534700216638157e-06,6.274537736317143e-05
1.3595566088042688e-05,9.011746442411095e-06,5.092705396236852e-05
1.4878985894029029e-05,8.465169230476022e-06,3.667052078526467e-05
2.582537490525283e-06,4.707552307081642e-06,2.7806321668322198e-05
-1.0384715096733999e-05,2.9039003379693895e-07,2.2180594896781258e-05
-9.714030056784395e-06,-2.429617325105937e-06,1.5836603779462166e-05
3.156889988531475e-06,-3.1367903829959687e-06,4.7033595365064684e-06
1.3081544238957576e-05,-4.589495347318007e-06,-1.1435908163548447e-05
1.2077533028787002e-05,-8.062575943768024e-06,-2.4097462301142514e-05
2.0687600965629827e-07,-9.897506060951855e-06,-3.0918308766558766e-05
-1.2169816727691796e-05,-6.407960881915642e-06,-3.8996840885374695e-05
-1.1934210306208115e-05,-2.897461172324256e-06,-4.7206365707097575e-05
-3.011590621326832e-08,-2.6867105589190032e-06,-4.7823195927776396e-05
1.0531389307288919e-05,-3.9975020627025515e-06,-4.400165198603645e-05
1.13594996946631e-05,-4.0850700315786526e-06,-4.1178511310135946e-05
2.4171101813408313e-06,-4.0193745576289075e-07,-3.9369595469906926e-05
-1.097405947803054e-05,4.322627773944987e-06,-3.2960830139927566e-05
-1.1620222721830942e-05,6.616045993723674e-06,-2.345500615774654e-05
1.1836577868962195e-06,7.162707333918661e-06,-1.2972492186236195e-05
6.398774985427735e-06,7.2394386734231375e-06,-6.24400809101644e-06
2.6100744889845373e-06,6.880688488308806e-06,-8.043128218560014e-06
-1.613404663203255e-07,5.142698228155496e-06,-1.4441367056861054e-05
-1.597122491148184e-06,6.873309303045971e-06,-7.92027549323393e-06
-6.288794338615844e-07,8.801775038591586e-06,1.0165682397200726e-05
-1.4678167872261838e-06,5.502614840224851e-06,2.2471114789368585e-05
-8.889242963050492e-06,1.5289623434000532e-06,3.328770981170237e-05
-1.2310919373703655e-05,-1.104084844882891e-06,4.1359366150572896e-05
-1.1038384400308132e-05,-2.179119519496453e-06,4.753425673698075e-05
-9.62837384577142e-06,-2.7740436507883715e-06,5.2128296374576166e-05
-4.8099127525347285e-06,-2.247985321446322e-06,5.943997166468762e-05
-4.604392870533047e-06,-1.4017654166309512e-06,6.811211642343551e-05
-1.0282739822287112e-05,-1.7615170690987725e-06,6.99625670677051e-05
-1.304935631196713e-05,-1.3051599125901703e-06,6.9592751970049e-05
-9.220537322107702e-06,4.43466063870801e-07,7.162622205214575e-05
-4.260858531779377e-06,1.6856885167726432e-06,7.593376358272508e-05
2.602158474473981e-06,5.70996860460582e-07,7.417229062411934e-05
7.844083484087605e-06,-3.0090525342529872e-06,6.0205977206351236e-05
6.366381057887338e-06,-7.439825367328012e-06,3.7446348869707435e-05
4.535990228760056e-06,-9.925136509991717e-06,1.665489617153071e-05
1.0860793736355845e-05,-9.818069884204306e-06,-1.4363331501954235e-06
1.769080336089246e-05,-7.243665095302276e-06,-1.7209589714184403e-05
1.6004370991140604e-05,-2.012093091252609e-06,-2.5448111045989208e-05
6.601033419428859e-06,3.473073547866079e-06,-2.284234324179124e-05
-8.659918421471957e-06,4.020279448013753e-06,-1.2666493603319395e-05
-1.4872467545501422e-05,1.1157516155435587e-06,-6.071590632927837e-06
-3.178580300300382e-06,3.5412608667684253e-06,-1.0898056643782184e-05
1.1912139598280191e-05,1.2168126886535902e-05,-2.112850415869616e-05
1.534329385322053e-05,2.0120296539971605e-05,-2.3959648387972265e-05
1.290406726184301e-05,1.791352769942023e-05,-1.9676066585816443e-05
7.368622846115613e-06,6.217250302142929e-06,-1.236700700246729e-05
2.5913714125636034e-06,-2.514638708817074e-06,-7.917566108517349e-06
-1.6562534028707887e-06,-3.4829504329536576e-06,-9.648611921875272e-06
-6.506694262498058e-06,-8.02050067250093e-07,-7.20461321179755e-06
1.9531557882146444e-06,-4.935580122378269e-08,8.744175943320442e-07
1.705832801235374e-05,-2.2988735963735962e-06,1.1799087587860413e-05
2.2175872800289653e-05,-3.0474893719656393e-06,1.776324279489927e-05
1.8343103874940425e-05,-2.3878631054685684e-06,2.2542482838616706e-05
9.86103987088427e-06,-1.6156002402567538e-06,2.996075818373356e-05
9.710448694022489e-07,-2.2322465156321414e-06,3.299925447208807e-05
-3.014503704434901e-07,-4.609259576682234e-06,3.247697895858437e-05
3.3345468182233162e-06,-7.149236353143351e-06,3.414955790503882e-05
4.988849923392991e-06,-9.307900654675905e-06,4.20116848545149e-05
6.189611212903401e-06,-1.0787270184664521e-05,5.163303285371512e-05
4.694581548392307e-06,-1.0664740329957567e-05,6.055248741176911e-05
-3.3409173738618847e-06,-7.446147719747387e-06,6.340694380924106e-05
-8.265223186754156e-06,-2.379921397732687e-06,5.779379353043623e-05
-1.8365187770541525e-06,8.499890213897743e-07,4.892031938652508e-05
3.7583147332043154e-06,-7.047735834930791e-07,4.4287702621659264e-05
-6.042060363142809e-07,-6.506839326902991e-06,4.196927693556063e-05
-8.118230653053615e-06,-1.2818608411180321e-05,4.002330024377443e-05
-1.2411484931362793e-05,-1.3155526175978594e-05,4.035124584333971e-05
-6.930195013410412e-06,-1.0171740541409235e-05,3.939445014111698e-05
5.7667029977892525e-06,-1.0013895007432438e-05,2.7993432013317943e-05
1.2671741387748625e-05,-1.0403366104583256e-05,6.297753770923009e-06
1.157101087301271e-05,-9.784348549146671e-06,-1.2875116226496175e-05
8.37302013678709e-06,-7.3975288614747114e-06,-2.286257586092688e-05
6.182906872709282e-06,-5.924621291342191e-06,-2.6513755074120127e-05
5.416919975687051e-06,-5.911282187298639e-06,-3.121849294984713e-05
3.3820554108388023e-06,-3.0099374725978123e-06,-4.012898716609925e-05
-4.982314749213401e-06,4.204141077934764e-06,-4.803817137144506e-05
-8.38129471958382e-06,1.1379128409316763e-05,-5.184470865060575e-05
-2.552641490183305e-06,1.0082856533699669e-05,-5.095872620586306e-05
4.336261099524563e-06,2.504137228243053e-06,-4.753873508889228e-05
5.682291430275654e-06,-2.9595125852210913e-06,-3.992846541223116e-05
6.523623028442671e-07,-1.4704086197525612e-06,-3.4096985473297536e-05
-4.96648317493964e-06,5.49559672435862e-06,-3.24412903864868e-05
-4.044791694468586e-06,1.0036081221187487e-05,-2.7036436222260818e-05
2.0114182461838936e-06,6.469638265116373e-06,-1.3822574146615807e-05
4.9236036829825025e-06,1.0833784926944645e-06,3.850815573969157e-06
5.003953901905334e-06,-1.14279578156129e-06,2.0051216779393144e-05
1.4142480040391092e-06,-4.585214981034369e-07,3.2581832783762366e-05
-6.3107777350523975e-06,1.199310872834758e-06,3.667183409561403e-05
-8.013605111045763e-06,9.356413102068473e-07,2.6775651349453256e-05
4.94658434035955e-06,-2.1824430405104067e-06,1.1888208973687142e-05
1.812187474570237e-05,-7.956203262438066e-06,1.4391406693903264e-05
1.8089454897562973e-05,-1.2540600437205285e-05,3.929333615815267e-05
4.7254243327188306e-06,-9.479530490352772e-06,6.744410347891971e-05
-1.1677397196763195e-05,-1.3629863815367571e-06,7.756345439702272e-05
-1.2590216101671103e-05,2.161929842259269e-06,7.668744365219027e-05
3.3598353184061125e-06,-6.773804557269614e-07,7.026334060356021e-05
1.566615901538171e-05,-5.143814632901922e-06,5.7842451496981084e-05
1.212405550177209e-05,-4.629527211363893e-06,4.9540958571014926e-05
2.156474693038035e-06,-2.1291509710863465e-06,4.6886598283890635e-05
-2.8869333164038835e-06,-4.1273224269389175e-06,4.3153697333764285e-05
-3.826488864433486e-06,-6.415069492504699e-06,4.499766873777844e-05
-8.161246114468668e-06,-4.4419402911444195e-06,5.219968443270773e-05
-1.6747668269090354e-05,-7.508889439122868e-07,4.867244206252508e-05
-1.2105078894819599e-05,2.0129734821239254e-06,2.886504262278322e-05
2.0760455754498253e-06,1.3817026456308668e-06,1.9846831946779275e-06
1.086660358851077e-05,1.2489735468079743e-07,-2.058316022157669e-05
9.223246706824284e-06,1.24547591440205e-06,-3.78791919501964e-05
-1.7239005956071196e-06,5.165391939954134e-06,-4.928891939925961e-05
-5.312587745720521e-06,7.105191343725892e-06,-4.856064697378315e-05
8.859307854436338e-06,6.311785909929313e-06,-3.747120717889629e-05
2.85448750219075e-05,3.3538144634803757e-06,-2.6685349439503625e-05
3.3927739423234016e-05,-2.2196686586539727e-06,-2.114533526764717e-05
2.3982600396266207e-05,-6.162254976516124e-06,-1.83892079803627e-05
5.485491328727221e-06,-4.3121917769894935e-06,-1.591106592968572e-05
-1.1808328054030426e-05,6.781751267226355e-07,-1.4714560165884905e-05
-1.583940684213303e-05,-1.7940908492164453e-07,-1.2063323993061204e-05
-4.385102329251822e-06,-4.227841600368265e-06,-9.307013328907487e-07
6.614458015974378e-06,-4.288182481104741e-06,1.4276040928962175e-05
7.062870736262994e-06,-2.791184442685335e-06,2.2831120077171363e-05
1.5671654409743496e-06,-4.345053639553953e-06,3.0932522349758074e-05
-8.05628405942116e-06,-4.996283223590581e-06,4.400166289997287e-05
-1.3047372704022564e-05,-4.414604518387932e-06,5.512867937795818e-05
-6.438453965529334e-06,-4.752095264848322e-06,5.5706761486362666e-05
-6.744008373971155e-07,-5.756468453910202e-06,4.763807010021992e-05
1.1925724265893223e-06,-7.535360055044293e-06,4.675651143770665e-05
7.79753190727206e-06,-6.156190011097351e-06,6.304553971858695e-05
5.082389179733582e-06,-3.115824711130699e-06,7.766905036987737e-05
-6.130205292720348e-06,-1.4390722071766504e-06,7.92841165093705e-05
-1.4497114534606226e-05,7.362122005361016e-07,7.355205161729828e-05
-2.0309969841036946e-05,1.512292328698095e-06,6.064844274078496e-05
-1.075892669177847e-05,5.425602012110176e-07,4.53377615485806e-05
1.7077907159546157e-06,-1.0355942094975035e-06,2.6612993679009378e-05
4.734346930490574e-06,-4.184685309382985e-08,1.4489522982330527e-05
4.1952787910304323e-07,1.7785861246011336e-06,1.0567615390755236e-05
-9.128424608206842e-06,3.480231271169032e-06,1.0364495210524183e-05
-1.482668176322477e-05,5.721632987842895e-06,6.196479262143839e-06
-4.801272552867886e-06,7.024427759461105e-06,-8.921343578549568e-06
1.2124185559514444e-05,5.832601345900912e-06,-2.334580130991526e-05
1.7821332221501507e-05,2.781949660857208e-06,-2.6597195756039582e-05
1.2563943528220989e-05,1.6865250245245988e-06,-2.1910569557803683e-05
2.6753054953587707e-06,2.3245252123160753e-06,-2.1329076844267547e-05
-5.892671197216259e-06,3.6457472560869064e-06,-2.528760342102032e-05
-7.4086115091631655e-06,3.858945092360955e-06,-3.0343733669724315e-05
-1.0082843573400169e-06,1.3933657783127273e-06,-3.515159914968535e-05
1.4506443903883337e-06,-1.364525246572157e-06,-4.315325713832863e-05
-2.1506098164536525e-06,-2.669429193247197e-07,-4.878194158663973e-05
-9.24856067285873e-06,1.8563059711595997e-06,-4.340376835898496e-05
-1.8252145309816115e-05,2.6005436666309834e-06,-3.0027458706172183e-05
-2.1115816707606427e-05,2.989137897202454e-07,-2.0871297238045372e-05
-1.383391281706281e-05,-4.411795544001507e-06,-2.117113945132587e-05
-8.59631381899817e-06,-7.763150279060937e-06,-2.4285205654450692e-05
-9.469416909269057e-06,-6.436068360926583e-06,-1.9398637959966436e-05
-1.1104454642918427e-05,-1.976436578843277e-06,-3.880094482155982e-06
-1.3828397641191259e-05,5.122034849591728e-07,1.4704753994010389e-05
-1.1891871508851182e-05,2.5808310510910815e-06,2.9822094802511856e-05
-1.2096478712919634e-05,1.592703426922526e-07,3.865668622893281e-05
-2.2797401470597833e-05,-6.685072548862081e-06,4.456797614693642e-05
-2.0351553757791407e-05,-9.1272740974091e-06,5.331897773430683e-05
-7.128426659619436e-06,-6.921101885382086e-06,6.748999294359237e-05
-8.993658298095397e-07,-4.22243192588212e-06,8.036511280806735e-05
-1.2045966286677867e-06,-9.232422257809958e-07,8.664780762046576e-05
-8.829380021779798e-06,4.6967907110229135e-06,8.513111970387399e-05
-1.7835678590927273e-05,5.793762284156401e-06,7.346423080889508e-05
-1.617969792278018e-05,2.07299058274657e-06,5.777871410828084e-05
-7.806964276824147e-06,-1.4490367448161123e-06,4.629575050785206e-05
-2.13798125514586e-06,-2.8578083401953336e-06,3.8277772546280175e-05
-7.01938631664234e-08,-2.4367366222577402e-06,3.08137277897913e-05
-1.552865796838887e-06,-8.42821236801683e-07,2.4916471375036053e-05
-3.439791271375725e-06,1.1366533954060287e-06,1.7439124349039048e-05
-2.1264381757646333e-06,1.854738911788445e-06,7.454021215380635e-06
4.659152182284743e-06,2.6077507300215075e-06,9.265153835258388e-07
1.209853871841915e-05,5.063060143584153e-06,-1.3206644666752254e-07
1.5280331354006194e-05,7.24811980035156e-06,-4.27026316174306e-06
8.961174899013713e-06,7.43359123589471e-06,-2.3911401513032615e-05
-2.914948026955244e-06,6.7244191086501814e-06,-4.897877079201862e-05
-3.365335942362435e-06,5.35940307599958e-06,-5.779635830549523e-05
1.1372255357855465e-05,3.3583455660846084e-06,-4.987494685337879e-05
2.2005197024554946e-05,3.9732890400046017e-07,-4.0190239815274253e-05
2.072197457891889e-05,-3.443579430495447e-07,-3.224785905331373e-05
1.4772470422030892e-05,5.366877076085075e-07,-1.6903228242881596e-05
7.504653240175685e-06,5.050262643635506e-07,6.3310085351986345e-06
-1.185545556836587e-06,-1.9168903691024752e-06,3.2830786949489266e-05
-9.089717423194088e-06,-2.270866843900876e-06,5.400954614742659e-05
-1.340824383078143e-05,-2.073673385893926e-06,6.116013537393883e-05
-2.8752874641213566e-06,-6.280754405452171e-06,5.630792293231934e-05
1.2765931387548335e-05,-8.623254871054087e-06,5.0160717364633456e-05
1.7069954992621206e-05,-6.686104825348593e-06,5.1303130021551624e-05
1.5065031220728997e-05,-4.435737082530977e-06,5.036532456870191e-05
5.982210495858453e-06,-2.8940178253833437e-06,4.7340436140075326e-05
-8.498636816511862e-06,-2.688779886739212e-06,4.8506590246688575e-05
-1.0439179277454969e-05,-5.1029337555519305e-06,5.2324950956972316e-05
4.4292150960245635e-06,-8.821612027531955e-06,5.5284806876443326e-05
1.6590134691796266e-05,-9.705873708298896e-06,6.005557952448726e-05
1.534456532681361e-05,-5.771482392447069e-06,6.541679613292217e-05
4.8357187552028336e-06,-1.6033620795496972e-06,6.455789116444066e-05
-3.435488224567962e-06,-1.5518163536398788e-06,5.491459523909725e-05
-7.362648375419667e-07,-4.056109446537448e-06,4.3111318518640473e-05
1.0116645171365235e-05,-5.3486842261918355e-06,3.667404962470755e-05
1.9453527784207836e-05,-4.223631094646407e-06,3.37701421813108e-05
2.5647826987551525e-05,-2.5489175641268957e-06,2.736581336648669e-05
2.244941242679488e-05,-2.673549715836998e-06,1.5647960026399232e-05
7.491772976209177e-06,-1.8175494460592745e-06,9.774626050784718e-06
1.6651019905111752e-06,-1.936122771439841e-06,1.266895287699299e-05
1.3747279808740132e-05,-6.940147613931913e-06,1.56461992446566e-05
2.480783405189868e-05,-1.0908454896707553e-05,1.3147373465471901e-05
2.5490651751169935e-05,-9.351647349831183e-06,6.8093313529971056e-06
2.118250085914042e-05,-3.938214376830729e-06,5.078140361547412e-07
1.4688317605759948e-05,1.2840660019719508e-06,-2.8548206501000095e-06
1.1913301023014355e-05,3.1606448374077445e-06,-8.429504305240698e-06
6.729602318955585e-06,-1.754546445909e-07,-1.6164372937055305e-05
-4.509363861870952e-06,-3.5224156818003394e-06,-2.5091685529332608e-05
-1.4174084128626419e-07,-6.932035603313125e-07,-3.461707092355937e-05
1.4202350939740427e-05,2.2644237560598413e-06,-3.8319689338095486e-05
1.9302016880828887e-05,1.7862307686300483e-06,-2.9934146368759684e-05
1.3911067981098313e-05,-1.1459761708465521e-06,-1.937747947522439e-05
3.5809575820167083e-06,-4.691840331361163e-06,-1.7455009583500214e-05
-2.199476512032561e-06,-7.369184459093958e-06,-1.979764965653885e-05
2.115401457558619e-06,-8.035135579120833e-06,-1.4014733096701093e-05
1.163678098237142e-05,-6.946760095161153e-06,3.181974761901074e-06
1.7272908735321835e-05,-4.512973191594938e-06,2.07515276997583e-05
1.7135294910985976e-05,-3.0273006359493593e-06,2.845146445906721e-05
8.98326288734097e-06,-2.8992983516218374e-06,2.762514486676082e-05
-4.214916316414019e-06,-3.2641262350807665e-06,3.1991934520192444e-05
-7.045986876619281e-06,-4.8506385610380676e-06,4.609292955137789e-05
4.490995706873946e-06,-6.378726084221853e-06,5.9895766753470525e-05
1.1575697499210946e-05,-6.933658823982114e-06,6.363759166561067e-05
9.536159268463962e-06,-5.608469564322149e-06,6.161682540550828e-05
5.116771717439406e-06,-4.931648618367035e-06,5.767704715253785e-05
-3.3452854495408246e-06,-6.206309990375303e-06,4.7178156819427386e-05
-5.85455654800171e-06,-8.037964107643347e-06,2.8357193514239043e-05
3.828495209745597e-06,-1.0507049410080072e-05,1.2694573342741933e-05
1.527797940070741e-05,-1.1037728654628154e-05,1.161608724942198e-05
2.087612847390119e-05,-7.679526788706426e-06,2.1531777747441083e-05
1.646261262067128e-05,-5.1269375944684725e-06,2.388357461313717e-05
9.658063390816096e-06,-3.849392214760883e-06,1.3985554687678814e-05
1.4128941074886825e-05,-2.2813803752796957e-06,1.7195864074892597e-06
1.360997703159228e-05,-1.1436877684900537e-06,-1.1321259989927057e-05
-1.1040159506592317e-06,2.2045054492991767e-07,-1.72989512066124e-05
-6.426076652132906e-06,2.9122720661689527e-06,-1.5275523765012622e-05
-5.38714539288776e-06,7.150862984417472e-06,-1.5458028428838588e-05
1.2525653119155322e-06,1.0017026397690643e-05,-1.9698383766808547e-05
1.4560225281456951e-05,1.0108170499734115e-05,-2.182422213081736e-05
1.6645717551000416e-05,1.0323730748496018e-05,-2.095112176903058e-05
5.710249752155505e-06,1.1818755410786252e-05,-2.0159432096988894e-05
1.553475158289075e-06,1.3177395885577425e-05,-1.839185642893426e-05
1.0008392564486712e-05,1.0158319128095172e-05,-1.4257048860599753e-05
1.5629402696504258e-05,5.432108537206659e-06,-6.730464974680217e-06
1.2456936929083895e-05,2.954338015115354e-06,-4.5661462877433223e-07
3.0589508241973817e-06,3.3677506507956423e-06,6.579198839062883e-07
-3.5082814520137617e-06,6.1463074416678865e-06,-2.324457515356926e-09
7.304944915631495e-07,7.57123189032427e-06,-7.435525617438543e-07
1.2212877663841937e-05,4.500715931499144e-06,-3.869035936077125e-06
1.7443251635995694e-05,-1.016744363369071e-06,-4.174721652816515e-06
1.4667292816739064e-05,-4.460822765395278e-06,1.1272151823504828e-05
7.2532448029960506e-06,-4.280607299733674e-06,3.586665479815565e-05
-5.024108304496622e-06,-2.7191192657483043e-06,5.237292134552263e-05
-1.2038926797686145e-05,-1.6215725509027834e-06,6.220176874194294e-05
-4.609097686625319e-06,-2.287276856804965e-06,7.147154246922582e-05
1.9339531718287617e-06,-7.246107998071238e-06,8.08186741778627e-05
-3.225968157494208e-06,-1.1558619917195756e-05,8.846659329719841e-05
-2.980692670462304e-06,-1.0189710337726865e-05,8.564220479456708e-05
2.93974903797789e-06,-8.521657946403138e-06,6.657459744019434e-05
2.671795300557278e-07,-8.403186257055495e-06,3.877107155858539e-05
-8.022540896490682e-06,-5.012715973862214e-06,1.3176366337575018e-05
-1.389437420584727e-05,-5.424846563073515e-07,-4.2314527490816545e-06
-6.791537543904269e-06,3.7587806218652986e-06,-1.1530850315466523e-05
2.121973921020981e-06,2.759411472652573e-06,-3.168336888847989e-06
5.20141747983871e-06,-1.1339250249875477e-06,1.2351522855169605e-05
5.446071099868277e-06,-3.1454048894374864e-06,1.7233485777978785e-05
-1.1026783113265992e-06,-4.7269904825952835e-06,7.421157533826772e-06
-6.945904260646785e-06,-5.535908258025302e-06,-6.416407813958358e-06
-3.6357814678922296e-06,-5.395421339926543e-06,-1.460076146031497e-05
4.344808075984474e-06,-3.7190002331044525e-06,-2.2197351427166723e-05
5.234446234680945e-06,-8.908861559575598e-07,-3.2344436476705596e-05
-9.504909748159207e-09,2.2629637896898203e-06,-3.9611735701328143e-05
-5.756271548307268e-06,3.7105539831827627e-06,-3.8446520193247125e-05
-1.0306099284207448e-05,3.433141273490037e-06,-3.3771902963053435e-05
-1.0219043360848445e-05,2.9682285003218567e-06,-3.133705467917025e-05
4.3838778651661414e-07,2.267768877572962e-06,-2.980286990350578e-05
1.300453641306376e-05,1.4494261222353089e-06,-2.2987640477367677e-05
1.2212274668854661e-05,1.549742478346161e-06,-1.0955038305837661e-05
-2.0637066882045474e-06,3.1694733024778543e-06,4.479646577237872e-06
-1.569556479807943e-05,4.850549430557294e-06,2.1371366528910585e-05
-1.5600864571752027e-05,3.203480900992872e-06,3.6875862861052155e-05
-4.822918981517432e-06,-9.888949534797575e-07,4.8760048230178654e-05
1.0812083246491966e-06,-4.889177034783643e-06,5.4995438404148445e-05
-9.362963169223804e-07,-4.853176506003365e-06,6.259312795009464e-05
