0.0015766310971230268,-0.007884609512984753,0.006625344045460224
0.0015309187583625317,-0.004045854788273573,0.00473284674808383
0.0014776127645745873,-0.00015446668840013444,0.002544012386351824
0.0014260892057791352,0.0027165410574525595,0.00047534474288113415
0.0013868961250409484,0.004948566667735577,-0.0014792050933465362
0.0013594948686659336,0.007645006291568279,-0.003566635074093938
0.0013362132012844086,0.010051731951534748,-0.005896233022212982
0.0013164895353838801,0.01096699945628643,-0.008162111043930054
0.0012986252550035715,0.010955378413200378,-0.009917226620018482
0.0012792387278750539,0.010999307036399841,-0.010746399872004986
0.0012645773822441697,0.010966576635837555,-0.010798401199281216
0.0012597288005053997,0.010997950099408627,-0.010688021779060364
0.0012618980836123228,0.010972202755510807,-0.010627762414515018
0.0012649521231651306,0.010992719791829586,-0.010462070815265179
0.0012684122193604708,0.010852302424609661,-0.009798474609851837
0.0012724995613098145,0.00926557369530201,-0.008309449069201946
0.0012721847742795944,0.005998400039970875,-0.006432198453694582
0.0012631891295313835,0.0029567047022283077,-0.004454170819371939
0.0012515239650383592,6.977126031415537e-05,-0.002264761831611395
0.001252595684491098,-0.002723047276958823,6.182020297273993e-05
0.0012603605864569545,-0.004711593966931105,0.001944904332049191
0.0012633992591872811,-0.006099486257880926,0.003280156059190631
0.001259952667169273,-0.007340343203395605,0.004417340736836195
0.001251035020686686,-0.008738781325519085,0.005635385401546955
0.0012464217143133283,-0.009873507544398308,0.006804205942898989
0.001248497050255537,-0.010410620830953121,0.007629884872585535
0.0012473504757508636,-0.01032964512705803,0.008095113560557365
0.0012397594982758164,-0.01001499779522419,0.008352112956345081
0.001239303033798933,-0.009622110985219479,0.008559128269553185
0.0012513844994828105,-0.009058726020157337,0.00854575540870428
0.001266791601665318,-0.007821694947779179,0.008082584477961063
0.0012679868377745152,-0.006168340798467398,0.007213536184281111
0.0012384426081553102,-0.004526935052126646,0.006252265069633722
0.001175513374619186,-0.0028822636231780052,0.005182789172977209
0.0011047999141737819,-0.0008362994412891567,0.0038477485068142414
0.0010575634660199285,0.0016589185688644648,0.002126020146533847
0.0010367740178480744,0.004158946685492992,0.00029472270398400724
0.0010298052802681923,0.006132693029940128,-0.0012620392953976989
0.0010320827132090926,0.007845000363886356,-0.002553201513364911
0.0010344497859477997,0.00961509719491005,-0.003925474360585213
0.0010339516447857022,0.010847574099898338,-0.005383288953453302
0.0010388105874881148,0.011007296852767467,-0.006586418952792883
0.0010475588496774435,0.010950706899166107,-0.007122972514480352
0.00106459588278085,0.011006718501448631,-0.007097626570612192
0.001086390228010714,0.010964127257466316,-0.0068829599767923355
0.0011046887375414371,0.011000210419297218,-0.006720440462231636
0.0011166096664965153,0.010406470857560635,-0.006367274094372988
0.001129159820266068,0.00872515607625246,-0.005448450334370136
0.0011462061665952206,0.0068000443279743195,-0.004269863478839397
0.0011597740231081843,0.0051128738559782505,-0.0030868262983858585
0.0011726542143151164,0.003110632998868823,-0.0017864073161035776
0.001184738241136074,0.0005506416200660169,-0.00011612767411861569
0.0012015143875032663,-0.0026048910804092884,0.001998314168304205
0.0012253295863047242,-0.005176815669983625,0.004050979390740395
0.0012462782906368375,-0.006614698562771082,0.005526286084204912
0.0012580890906974673,-0.007494678720831871,0.006564161274582148
0.0012642256915569305,-0.008497768081724644,0.007552101742476225
0.001270602224394679,-0.009569523856043816,0.008593247272074223
0.001278222189284861,-0.010288381017744541,0.009424664080142975
0.0012856553075835109,-0.010466812178492546,0.009868448600172997
0.0012924434849992394,-0.01021325122565031,0.010000216774642467
0.001299679046496749,-0.009845271706581116,0.010010507889091969
0.001306050457060337,-0.00941215455532074,0.009931334294378757
0.001312622451223433,-0.008604180999100208,0.009555372409522533
0.0013155936030671,-0.00720266392454505,0.008746118284761906
0.0013147764839231968,-0.005597142968326807,0.007783202454447746
0.0013124089455232024,-0.0038459717761725187,0.0067667304538190365
0.0013114216271787882,-0.0019379946170374751,0.0055188145488500595
0.001314210589043796,0.00026353856083005667,0.003923934418708086
0.0013133699540048838,0.0025535710155963898,0.0021625454537570477
0.0013056369498372078,0.0045639220625162125,0.000480036367662251
0.0012992258416488767,0.006306487135589123,-0.000979692442342639
0.0012949645752087235,0.00816317182034254,-0.0024215474259108305
0.0012850725324824452,0.009929317981004715,-0.003895821515470743
0.0012746098218485713,0.010820658877491951,-0.005051547195762396
0.001266821171157062,0.01097071822732687,-0.005789684131741524
0.0012570066610351205,0.010978985577821732,-0.006109311711043119
0.0012450009817257524,0.010742951184511185,-0.006216205190867186
0.001233499962836504,0.010265223681926727,-0.006282513961195946
0.0012203729711472988,0.009487503208220005,-0.006235110107809305
0.0012058706488460302,0.008151011541485786,-0.005710568744689226
0.001197105273604393,0.006549124140292406,-0.004799675662070513
0.0011910973116755486,0.004872755613178015,-0.0038206405006349087
0.001186008215881884,0.0030815284699201584,-0.0028256361838430166
0.0011805661488324404,0.001078114379197359,-0.0017269763629883528
0.001175189041532576,-0.0011010619346052408,-0.0005380859947763383
0.0011723943753167987,-0.003044665092602372,0.0005235916469246149
0.001171373063698411,-0.004335714504122734,0.0013764757895842195
0.0011681492906063795,-0.005172838922590017,0.002123699989169836
0.0011614891700446606,-0.005964180454611778,0.0028650579042732716
0.0011587259359657764,-0.006749629508703947,0.003548255655914545
0.0011648708023130894,-0.007321922108530998,0.004135840572416782
0.001173493335954845,-0.007480538450181484,0.0046490817330777645
0.001181900966912508,-0.007265340071171522,0.005510406568646431
0.001190999406389892,-0.006919617298990488,0.006523003336042166
0.0011922053527086973,-0.006579041481018066,0.006793301086872816
0.0011894566705450416,-0.005918885115534067,0.006295870989561081
0.0011973478831350803,-0.004542413167655468,0.0053214263170957565
0.0012464487226679921,-0.0031176982447504997,0.004302982706576586
0.0013115470064803958,-0.001953925471752882,0.0035755352582782507
0.0013391488464549184,-0.0007673169020563364,0.0027828849852085114
0.0013422349002212286,0.0007533043972216547,0.0017993765650317073
0.0013345148181542754,0.0025968593545258045,0.0006937115686014295
0.0013253589859232306,0.0038370678666979074,-0.00029074298799969256
0.0013216470833867788,0.004743556957691908,-0.001180547522380948
0.0013192814076319337,0.005895158741623163,-0.002120989141985774
0.001311747939325869,0.0071482304483652115,-0.003049310529604554
0.0012960126623511314,0.008096544072031975,-0.003870063927024603
0.0012770650209859014,0.008488684892654419,-0.004495922010391951
0.0012613324215635657,0.008336514234542847,-0.004863261710852385
0.0012497869320213795,0.007854453288018703,-0.004943541716784239
0.0012378807878121734,0.007329598069190979,-0.004863202106207609
0.0012254845350980759,0.006676860153675079,-0.004693645518273115
0.0012110674288123846,0.005691378843039274,-0.004412014968693256
0.0011979822302237153,0.004441190976649523,-0.00404377980157733
0.001185807166621089,0.003203695174306631,-0.003727647475898266
0.001172733143903315,0.0019002651097252965,-0.0033499544952064753
0.0011587252374738455,0.00044801682815887034,-0.0027827902231365442
0.0011473573977127671,-0.0011238319566473365,-0.0020408628042787313
0.0011421411763876677,-0.0025933103170245886,-0.0012520080199465156
0.0011388591956347227,-0.003629350336268544,-0.0006295497296378016
0.0011325861560180783,-0.004219247028231621,-0.0002576465776655823
0.0011278234887868166,-0.004657289013266563,-2.4718430722714402e-05
0.0011274401331320405,-0.005024556536227465,2.4307346393470652e-05
0.00114468636456877,-0.0053491354919970036,5.037018854636699e-05
0.0011693724663928151,-0.005514000542461872,0.00022758163686376065
0.0011775637976825237,-0.005415985360741615,0.00038067225250415504
0.0011669195955619216,-0.005207628943026066,0.0004376725119072944
0.0011445904383435845,-0.00500966003164649,0.00042092203511856496
0.0011223687324672937,-0.004571800120174885,0.00029498685034923255
0.001100893598049879,-0.0037905697245150805,9.309772576671094e-05
0.001080829999409616,-0.0029597284737974405,-9.104422497330233e-05
0.0010556482011452317,-0.0022726296447217464,-0.00025423691840842366
0.0010270052589476109,-0.0016908973921090364,-0.00042792977183125913
0.0009994893334805965,-0.0009726035641506314,-0.0006842341972514987
0.0009779067477211356,-1.0163916158489883e-05,-0.001020503113977611
0.0009623409132473171,0.000832250458188355,-0.0013413580600172281
0.0009533442789688706,0.0012497169664129615,-0.0015605546068400145
0.0009545734501443803,0.0015477514825761318,-0.0016874262364581227
0.0009726974531076849,0.0019956377800554037,-0.0017606294713914394
0.0009986803634092212,0.002478382783010602,-0.0018426236929371953
0.0010087571572512388,0.002706176834180951,-0.001946877921000123
0.0010030745761469007,0.002524514915421605,-0.002014033030718565
0.0009945302736014128,0.0020168267656117678,-0.0020495967473834753
0.000990171916782856,0.0015009723138064146,-0.002134377835318446
0.0009923034813255072,0.001109456061385572,-0.0022326409816741943
0.0009967085206881166,0.0006509138620458543,-0.002138596959412098
0.0009995665168389678,3.218076017219573e-05,-0.0018223044462502003
0.0009992291452363133,-0.0005712092970497906,-0.001467633293941617
0.000989869935438037,-0.0011735587613657117,-0.0011486196890473366
0.0009735318599268794,-0.0018951348029077053,-0.0008712655981071293
0.0009612293797545135,-0.002934644464403391,-0.0006186504615470767
0.0009684522519819438,-0.003906599245965481,-0.0003744179557543248
0.0009829988703131676,-0.0041785105131566525,-0.0001898310292745009
0.0009877941338345408,-0.003994470462203026,-9.34600320761092e-05
0.0009799503022804856,-0.0038213874213397503,-0.00011996596731478348
0.0009689858416095376,-0.003822104772552848,-0.0001709226780803874
0.0009636437753215432,-0.00386408600024879,-0.00011982931027887389
0.0009644435485824943,-0.003747752169147134,7.70835413277382e-06
0.0009681176743470132,-0.0033890646882355213,0.0001924987736856565
0.0009751858888193965,-0.0030102282762527466,0.0005054633365944028
0.0009991500992327929,-0.002711822744458914,0.0008149528875946999
0.001033478183671832,-0.0023906021378934383,0.0009454985847696662
0.0010490998392924666,-0.0019467228557914495,0.0009187492541968822
0.0010290725622326136,-0.0014528183965012431,0.0007293862872757018
0.0009888351196423173,-0.0009949333034455776,0.000374779716366902
0.0009521510801278055,-0.0005610703956335783,1.0340848348278087e-05
0.000932148948777467,-0.00011647811334114522,-8.126839384203777e-05
0.0009272528113797307,0.00040099251782521605,-4.110135341761634e-05
0.0009248807327821851,0.0008923731511458755,-0.0002156674599973485
0.0009130252292379737,0.0012084197951480746,-0.00047001702478155494
0.0008920822292566299,0.0014615763211622834,-0.00051428860751912
0.0008715660660527647,0.0017810502322390676,-0.0005121422000229359
0.0008561575086787343,0.0019796104170382023,-0.0006042012246325612
0.000842929061036557,0.00201510451734066,-0.0006252032471820712
0.0008309530676342547,0.001965373521670699,-0.0005580242141149938
0.0008136524120345712,0.0018528051441535354,-0.0004912926233373582
0.000791973783634603,0.0016992272576317191,-0.00041279743891209364
0.0007790340459905565,0.0015760271344333887,-0.00032727522193454206
0.0007747001945972443,0.0014285808429121971,-0.00030051343492232263
0.0007754581747576594,0.0011529894545674324,-0.0002715614973567426
0.000779054535087198,0.0007970327860675752,-0.00020307056547608227
0.0007780811283737421,0.0005165599868632853,-9.01273888302967e-05
0.0007727675256319344,0.00041299633448943496,0.00021316928905434906
0.0007675497909076512,0.00033264432568103075,0.0004958211211487651
0.0007637476664967835,0.0001382899354211986,0.0005484689609147608
0.0007659539696760476,-9.86717532214243e-06,0.0005186563357710838
0.0007690350757911801,-4.685578460339457e-05,0.0004924534587189555
0.0007715031388215721,-2.3023396352073178e-05,0.000529677199665457
0.0007790367235429585,6.766853766748682e-05,0.0005539649864658713
0.0007915815804153681,0.00015025062020868063,0.0005015426431782544
0.0008035026839934289,0.00016715667152311653,0.0003179548366460949
0.0008086093002930284,0.00017110331100411713,0.00013738995767198503
0.0008069915929809213,0.0001725096080917865,0.00011069796164520085
0.0007960920920595527,0.00014404985995497555,0.00019946428074035794
0.00076482625445351,0.00016035496082622558,0.00026883979444392025
0.0007073881570249796,0.0003112364502158016,0.0002537666878197342
0.0006333194323815405,0.0005642897449433804,0.00019258282554801553
0.000554796657525003,0.0008020629175007343,0.00014392244338523597
0.0004843120404984802,0.0009965132921934128,0.00014880055096000433
0.00043844152241945267,0.0012098135193809867,0.00018319461378268898
0.00042092124931514263,0.00148163887206465,0.00021807085431646556
0.00041480071377009153,0.0016866994556039572,0.00021156406728550792
0.0004068441630806774,0.0016996220219880342,0.00020143289293628186
0.0003925394848920405,0.0016956760082393885,0.0001990926539292559
0.0003651597653515637,0.001854999572969973,0.00018231816648039967
0.000324331660522148,0.0019981060177087784,0.00015294202603399754
0.00028619516524486244,0.002020739484578371,0.00013731987564824522
0.0002719626936595887,0.0018957140855491161,0.00013742857845500112
0.00028710690094158053,0.0017102556303143501,0.0001813107664929703
0.0003138976462651044,0.0016094252932816744,0.0002179393923142925
0.00033694409648887813,0.001548668136820197,0.0002035539800999686
0.0003606239042710513,0.001472484553232789,0.0001644876174395904
0.00039573534741066396,0.0013413336127996445,0.0001431620621588081
0.00044309833901934326,0.0011947304010391235,0.00015663255180697888
0.0004923864034935832,0.0011099489638581872,0.00019847328076139092
0.0005389017751440406,0.0010881004855036736,0.0002346406108699739
0.0005781885120086372,0.0010332715464755893,0.00024279691569972783
0.0005960387643426657,0.000902467523701489,0.00024000965640880167
0.0005875336355529726,0.0007641236879862845,0.00025318277766928077
0.00055840885033831,0.0006671375595033169,0.00028810554067604244
0.000511244114022702,0.0005995439132675529,0.0003395297098904848
0.0004484366509132087,0.0005596000119112432,0.00039788440335541964
0.00038075644988566637,0.0005368211423046887,0.0004358907463029027
0.00032365904189646244,0.0005086082965135574,0.0004513158346526325
0.00028555296012200415,0.0004911996657028794,0.0004519585345406085
0.00026237653219141066,0.0004668227047659457,0.0004541933594737202
0.00024097693676594645,0.00041884550591930747,0.0004845611401833594
0.00020973393111489713,0.00044964690459892154,0.0005452169571071863
0.0001608357415534556,0.0006430628127418458,0.0005841834936290979
9.916468115989119e-05,0.0009090804378502071,0.0005778539925813675
5.6194989156210795e-05,0.001075896667316556,0.0005539007834158838
5.2303697884781286e-05,0.0011295549338683486,0.0005417311331257224
6.83893813402392e-05,0.0011661479948088527,0.000535024213604629
0.00014716426085215062,0.0012511350214481354,0.0005151162622496486
0.000300474843243137,0.0013554689940065145,0.0004733957175631076
0.0004078126803506166,0.0014061018591746688,0.0004579254309646785
0.0003957228036597371,0.001484416425228119,0.0004570688179228455
0.0003172034048475325,0.0015701944939792156,0.00042265059892088175
0.00025214842753484845,0.001584798563271761,0.0003736495564226061
0.00022554973838850856,0.0015428697224706411,0.0003507992660161108
0.0002664647181518376,0.0014333962462842464,0.00037625760887749493
0.00036864084540866315,0.0013137543573975563,0.0004463783698156476
0.00045002283877693117,0.0012838979018852115,0.0005053214845247567
0.0004650697810575366,0.001487830886617303,0.0005023307166993618
0.0004466978716664016,0.0018569896928966045,0.0004625215078704059
0.000429342471761629,0.0020746628288179636,0.00043350961641408503
0.00042200039024464786,0.0020656180568039417,0.000433632725616917
0.00041647357284091413,0.0020428949501365423,0.0004562041722238064
0.00038618315011262894,0.002132607391104102,0.0004751884553115815
0.0003302234981674701,0.0022517601028084755,0.00045825791312381625
0.0002859588712453842,0.00224167387932539,0.00042529337224550545
0.00028456392465159297,0.002072729403153062,0.0004178435483481735
0.0003162217326462269,0.002015521051362157,0.0004311501106712967
0.00035059123183600605,0.0021769003942608833,0.0004487632540985942
0.0003691759193316102,0.002408557338640094,0.0004636821977328509
0.0003772082272917032,0.002474335953593254,0.0004593264020513743
0.000383595674065873,0.002391693415120244,0.00043990323320031166
0.000384412327548489,0.002346753841266036,0.00042404947453178465
0.00035870252759195864,0.0022726517636328936,0.00040603941306471825
0.0003054364351555705,0.0021128973457962275,0.00038235142710618675
0.00021853737416677177,0.0018246674444526434,0.00034884692286141217
0.00010699082486098632,0.0014480260433629155,0.00031003644107840955
2.650058377184905e-05,0.0011451205937191844,0.00029048218857496977
-3.251623866162845e-06,0.0010582365794107318,0.0002599045692477375
-8.499288014718331e-06,0.0009779514512047172,0.00020186857727821916
-2.4056571419350803e-05,0.00085208669770509,0.00014937552623450756
-5.8784742577699944e-05,0.0009720444795675576,0.0001137841900344938
-0.00010411803668830544,0.0013516421895474195,6.86226921970956e-05
-0.00013436049630399793,0.0015441975556313992,1.2773482012562454e-05
-6.02170912316069e-05,0.0014671095414087176,-4.552844256977551e-05
8.698127930983901e-05,0.0014648007927462459,-0.0001179266328108497
0.00013820044114254415,0.0015424841549247503,-0.0001898256887216121
4.050981078762561e-05,0.001440084888599813,-0.00022657967929262668
-0.00012897970736958086,0.0010340146254748106,-0.00020089177996851504
-0.0002934253425337374,0.00048020840040408075,-0.00011686602374538779
-0.0004619551182258874,-1.1698823527694913e-06,-1.6236464944086038e-05
-0.0006698217475786805,-0.0003794314106926322,3.9667611417826265e-05
-0.0009187410469166934,-0.0007953123422339559,4.141006866120733e-05
-0.0011846834095194936,-0.0012459290446713567,3.8880418287590146e-05
-0.0014381271321326494,-0.0017314109718427062,8.325404633069411e-05
-0.0016466252272948623,-0.002124934457242489,0.00016028841491788626
-0.001800678321160376,-0.0024066083133220673,0.00021587473747786134
-0.0019062166102230549,-0.002755302470177412,0.00023370567942038178
-0.0019367567729204893,-0.003206835128366947,0.00023080747632775456
-0.001866708043962717,-0.0035786619409918785,0.0002279720501974225
-0.0017489540623500943,-0.0037208418361842632,0.00022274361981544644
-0.0016858718590810895,-0.0037233824841678143,0.0002145429898519069
-0.0016760554863139987,-0.003679780289530754,0.00019439126481302083
-0.0015972309047356248,-0.003735229605808854,0.0001499317877460271
-0.0014015338383615017,-0.004166014492511749,0.0001539821969345212
-0.0011886003194376826,-0.00486178882420063,0.00027553614927455783
-0.0010189013555645943,-0.0053121051751077175,0.00045198877342045307
-0.0008430385496467352,-0.005438545253127813,0.0006035571568645537
-0.0006111811380833387,-0.005518748890608549,0.0007139491499401629
-0.00031607275013811886,-0.005552294664084911,0.0007966965204104781
-7.496074886148563e-06,-0.00516521604731679,0.0008217993308790028
0.0002481704577803612,-0.004200381692498922,0.0006981523474678397
0.0004378833109512925,-0.0031574524473398924,0.000424026045948267
0.000584070454351604,-0.0023412529844790697,0.00010308115452062339
0.0007199890678748488,-0.0015410076593980193,-0.00020461651729419827
0.0008870750898495317,-0.0004529400903265923,-0.0005380040965974331
0.0011468116426840425,0.0007738270796835423,-0.0009205668466165662
0.0015057481359690428,0.0018449969356879592,-0.0013068795669823885
0.0018607983365654945,0.003074429463595152,-0.0017231766832992435
0.002121450612321496,0.0047789947129786015,-0.002266374183818698
0.0023032515309751034,0.006651694420725107,-0.0029259331058710814
0.002485677134245634,0.00814508181065321,-0.003571677953004837
0.0026150764897465706,0.00882576871663332,-0.0040604118257761
0.002423937665298581,0.008678264915943146,-0.004307435359805822
0.0019015342695638537,0.008199959062039852,-0.004362568259239197
0.001235833391547203,0.007745423819869757,-0.004344134591519833
0.0006587689858861268,0.00731911463662982,-0.004317569080740213
0.0004048219998367131,0.00621386244893074,-0.00416257418692112
0.00046435868716798723,0.004458903800696135,-0.0037177246995270252
0.000614310207311064,0.002707518870010972,-0.0030851385090500116
0.0009535648860037327,0.000625993125140667,-0.002385182771831751
0.0014698501909151673,-0.001922182971611619,-0.0015810503391548991
0.0015482617309316993,-0.004740650299936533,-0.0006325861904770136
0.0012313988991081715,-0.007297505158931017,0.0003922057803720236
0.0009152077836915851,-0.009074850007891655,0.0013246561866253614
0.000759034650400281,-0.010265424847602844,0.0020994828082621098
0.0006923353066667914,-0.010856961831450462,0.0027878601104021072
0.000622231513261795,-0.010963809676468372,0.0034726890735328197
0.0005745148519054055,-0.010946564376354218,0.00413792347535491
0.000586219597607851,-0.010854728519916534,0.004668094217777252
0.0006066819769330323,-0.010775071568787098,0.005011062137782574
0.00027642896748147905,-0.010683928616344929,0.005222868174314499
-0.0006545147625729442,-0.010604128241539001,0.005381705239415169
-0.0018449695780873299,-0.010520431213080883,0.005490745883435011
-0.0026942756958305836,-0.010438662022352219,0.005446969997137785
-0.0028817264828830957,-0.01024958211928606,0.0051627391949296
-0.0023952675983309746,-0.009385709650814533,0.004695725627243519
-0.002114279195666313,-0.007306442596018314,0.0041449726559221745
-0.0024192952550947666,-0.00471473066136241,0.0035157399252057076
-0.001886736718006432,-0.002095717703923583,0.002747605787590146
-0.000980266137048602,0.0006112938281148672,0.0018446858739480376
-0.0009331087931059301,0.003054100088775158,0.0009267539135180414
-0.00045130500802770257,0.005353222135454416,3.974052015109919e-05
0.0008447181317023933,0.007472422439604998,-0.0008337819017469883
0.0019306102767586708,0.009513987228274345,-0.0017676370916888118
0.0018691887380555272,0.010768084786832333,-0.002591474913060665
0.0007187731098383665,0.010733422823250294,-0.0030989558435976505
-0.0003652705636341125,0.009678959846496582,-0.0032733159605413675
-0.0011023366823792458,0.007963260635733604,-0.0030913446098566055
-0.0017643094761297107,0.006133603863418102,-0.0026938198134303093
-0.002626600908115506,0.004008802119642496,-0.0021391957998275757
-0.0038053421303629875,0.0012610083213075995,-0.001378005719743669
-0.004952119197696447,-0.0020485506393015385,-0.00033185287611559033
-0.006013615056872368,-0.0054557304829359055,0.0009329841705039144
-0.006412291433662176,-0.007793511729687452,0.0021570168901234865
-0.005792724434286356,-0.008248770609498024,0.002964417450129986
-0.004508741665631533,-0.007423543371260166,0.0032386635430157185
-0.00314202974550426,-0.0062159765511751175,0.0031508542597293854
-0.002276609418913722,-0.005108527839183807,0.002909103175625205
-0.0018205270171165466,-0.004209067672491074,0.0026425423566251993
-0.0014229865046218038,-0.003468138864263892,0.002395588206127286
-0.0010030701523646712,-0.0027098010759800673,0.0021738701034337282
-0.0006971898255869746,-0.001887099933810532,0.0019196543144062161
-0.00045140221482142806,-0.0010987372370436788,0.0016206722939386964
-3.377325992914848e-05,-0.00042308124830015004,0.001308705541305244
0.001117680687457323,0.00015796862135175616,0.0010414544958621264
0.002975196810439229,0.0006648933049291372,0.0008232163963839412
0.004714831709861755,0.0011946961749345064,0.0006322730332612991
0.005632902029901743,0.0017222531605511904,0.0004177054506726563
0.005728087853640318,0.002090164925903082,0.00019915476150345057
0.005463773850351572,0.002361083636060357,7.513860509789083e-06
0.005210103001445532,0.002629987895488739,-0.0001307989878114313
0.0050283935852348804,0.0029226362239569426,-0.0002227640652563423
0.003920305520296097,0.003193145152181387,-0.0002986627514474094
0.0009324974380433559,0.003328450256958604,-0.00037809551577083766
-0.00260878331027925,0.0033957199193537235,-0.00043946460937149823
-0.005006114952266216,0.003539391327649355,-0.0005137138068675995
-0.005517283454537392,0.00363369332626462,-0.0006258675130084157
-0.004833747632801533,0.003605955047532916,-0.0007485405658371747
-0.004074847791343927,0.0034837655257433653,-0.0008274659048765898
-0.0033567906357347965,0.0033362754620611668,-0.000852108234539628
-0.002537924563512206,0.003229420632123947,-0.00085027189925313
-0.0017579750856384635,0.0031733624637126923,-0.0008556538377888501
-0.0013364719925448298,0.0030787717550992966,-0.0008972280193120241
-0.0011376342736184597,0.0029196054674685,-0.0009423434967175126
-0.0008675821009092033,0.002799335168674588,-0.0009724706178531051
-0.00036508135963231325,0.002731203567236662,-0.000981404329650104
0.00019637352670542896,0.0026686829514801502,-0.0009777829982340336
0.0006551906117238104,0.0026106846053153276,-0.0009767712326720357
0.0011127112666144967,0.002554918173700571,-0.0010106158442795277
0.001827769330702722,0.002504715695977211,-0.0010647866874933243
0.0025646283756941557,0.00249686511233449,-0.0011259185848757625
0.003084758995100856,0.00248389202170074,-0.0011977179674431682
0.00349384150467813,0.002412481466308236,-0.0012579398462548852
0.003791931550949812,0.002337193116545677,-0.0012512506218627095
0.004038992337882519,0.0023079828824847937,-0.0012160118203610182
0.004374157637357712,0.0022812155075371265,-0.0012166056549176574
0.004653098061680794,0.002236003056168556,-0.0012367996387183666
0.004946538712829351,0.002164898905903101,-0.0012488599168136716
0.005557504948228598,0.002088889479637146,-0.0012420155107975006
0.00637928256765008,0.0020707633811980486,-0.0012221761280670762
0.007085562217980623,0.0020538854878395796,-0.0012086823116987944
0.007454858627170324,0.001996147446334362,-0.0011754176812246442
0.007604926824569702,0.002001762157306075,-0.001145159942097962
0.008013864979147911,0.0020107270684093237,-0.001158313942141831
0.009081649594008923,0.001958088483661413,-0.0011734740110114217
0.01033327542245388,0.0018517090938985348,-0.0011440323432907462
0.010907109826803207,0.0016907198587432504,-0.0010689994087442756
0.010974745266139507,0.001568127190694213,-0.0009717640350572765
0.0109814228489995,0.0015342764090746641,-0.0008849133155308664
0.01084103249013424,0.0015182782663032413,-0.0008287039236165583
0.010265855118632317,0.0014252483379095793,-0.000780625210609287
0.00922479759901762,0.0012717311037704349,-0.0007201943662948906
0.008294478990137577,0.001097249099984765,-0.0006433556554839015
0.007652346044778824,0.0009504611371085048,-0.0005651275860145688
0.007050137966871262,0.0008760656928643584,-0.0005128453485667706
0.0063798571936786175,0.000838455802295357,-0.0005132893566042185
0.006044550333172083,0.0007529199356213212,-0.0005566257168538868
0.006388351321220398,0.0006371428025886416,-0.0006261528469622135
0.006876709405332804,0.0005286795785650611,-0.000716220703907311
0.006787381134927273,0.00041160412365570664,-0.0008097203099168837
0.0063165053725242615,0.0003286098362877965,-0.0008506649173796177
0.006352854426950216,0.00029334102873690426,-0.000837867904920131
0.007404271978884935,0.00026436883490532637,-0.0008354136953130364
0.009567556902766228,0.00024559436133131385,-0.0008497132221236825
0.010176081210374832,0.00021995727729517967,-0.0008428479195572436
0.009827127680182457,0.00015765431453473866,-0.0008038448286242783
0.009981395676732063,9.585569932824001e-05,-0.0007485900423489511
0.009722220711410046,2.1621090127155185e-05,-0.000687439925968647
0.00903480313718319,-3.2988387829391286e-05,-0.0006206761463545263
0.0055265286937355995,8.59880765347043e-06,-0.0005669738166034222
0.0023710066452622414,5.820946898893453e-05,-0.00053892977302894
0.0007583788246847689,6.408495391951874e-05,-0.0005097039975225925
-0.0015843339497223496,7.967093551997095e-05,-0.00045858536032028496
-0.004698098171502352,9.461284207645804e-05,-0.00038348944508470595
-0.007561253849416971,9.48014494497329e-05,-0.000287485629087314
-0.009504188783466816,0.00011825501132989302,-0.0001938433852046728
-0.010722137987613678,0.00015502524911426008,-0.00012867021723650396
-0.010924826376140118,0.00018081683083437383,-8.118134428514168e-05
-0.011014129035174847,0.00019545295799616724,-3.070119419135153e-05
-0.010962712578475475,0.00016202859114855528,3.456295235082507e-05
-0.011011873371899128,9.671157749835402e-05,0.00011710306716850027
-0.010970992036163807,7.010196713963524e-05,0.00019654870266094804
-0.011004112660884857,7.018205360509455e-05,0.00024356189533136785
-0.01058174017816782,3.401858703000471e-05,0.0002654732088558376
-0.008850432001054287,-3.2881875085877255e-05,0.0002945587912108749
-0.0060026333667337894,-0.0001222936698468402,0.0003436359402257949
-0.0037343765143305063,-0.00022347034246195108,0.00040620207437314093
-0.002522545401006937,-0.00026073373737744987,0.0004618317470885813
-0.0017161793075501919,-0.00019316859834361821,0.00048582369345240295
-0.0002761936339084059,-0.00010019833280239254,0.00047555839410051703
0.0031526139937341213,-8.904290007194504e-05,0.00046051491517573595
0.007365870289504528,-0.0001670562633080408,0.00045593950198963284
0.008189518004655838,-0.00022939289920032024,0.00044725611223839223
0.006658212747424841,-0.000237639294937253,0.0004065897373948246
0.008911596611142159,-0.0003057397552765906,0.00034765605232678354
0.01049791555851698,-0.00044610851909965277,0.00030805220012553036
0.01012884359806776,-0.0004925353568978608,0.0002635907439980656
0.010410715825855732,-0.0004543050890788436,0.00018726351845543832
0.010041519068181515,-0.0004566760908346623,0.00010601265239529312
0.01018527802079916,-0.0005066095036454499,5.892977787880227e-05
0.009936358779668808,-0.000557385734282434,6.17929472355172e-05
0.009983299300074577,-0.0005623552715405822,9.8830831120722e-05
0.00981923472136259,-0.0005152272642590106,0.00012490310473367572
0.009790115989744663,-0.0004805326752830297,0.00011506213195389137
0.009695560671389103,-0.0004974427283741534,9.323079575551674e-05
0.009613389149308205,-0.0005145645118318498,8.746188541408628e-05
0.009565325453877449,-0.0005182024906389415,0.00011299332982162014
0.009446960873901844,-0.0005206141504459083,0.0001745118643157184
0.009435085579752922,-0.0004888647235929966,0.00024036075046751648
0.00929629523307085,-0.0004038014158140868,0.0002584893081802875
0.009298165328800678,-0.0003079262678511441,0.00023295587743632495
0.009153811261057854,-0.0002525197924114764,0.0002130523498635739
0.009165178053081036,-0.00029075596830807626,0.00022751151118427515
0.009019848890602589,-0.00040627550333738327,0.0002750337589532137
0.009028819389641285,-0.0004643115389626473,0.00032621537684462965
0.008891670033335686,-0.00043831957736983895,0.0003470140800345689
0.008894847705960274,-0.00045252536074258387,0.00034689001040533185
0.008772581815719604,-0.0004787292273249477,0.00033887175959534943
0.008764883503317833,-0.000460446928627789,0.00032348226523026824
0.008652805350720882,-0.0004719066491816193,0.00032737708534114063
0.008633340708911419,-0.0005582193844020367,0.0003248785506002605
0.007523396983742714,-0.0007185149588622153,0.0002921714331023395
0.004283193964511156,-0.0008570594945922494,0.0002588622155599296
0.001020471565425396,-0.0008692755363881588,0.00020264025079086423
-0.0007441523484885693,-0.0008310655248351395,0.00010637001832947135
-0.001959071261808276,-0.0008147598709911108,-2.2521121536556166e-06
-0.0029015294276177883,-0.0007980888476595283,-0.00010085839312523603
-0.003862622659653425,-0.0007840790785849094,-0.00017436321650166065
-0.004557006526738405,-0.0007504877867177129,-0.00021529060904867947
-0.004964461084455252,-0.000659209443256259,-0.0002452908956911415
-0.005159206222742796,-0.0005698229069821537,-0.0002930730115622282
-0.005326784681528807,-0.0005504594300873578,-0.0003516901342663914
-0.0055674100294709206,-0.0005750867421738803,-0.0003981337940786034
-0.00581462774425745,-0.00062414794228971,-0.00040955140138976276
-0.00622157147154212,-0.0006705858395434916,-0.00038581094122491777
-0.006625991314649582,-0.0006497778231278062,-0.00035597418900579214
-0.007099401671439409,-0.0005826512351632118,-0.00035263749305158854
-0.00757293775677681,-0.0005552414222620428,-0.0003615965833887458
-0.00832271110266447,-0.0005638040602207184,-0.00034662807593122125
-0.009239837527275085,-0.0005811763694509864,-0.0002959977136924863
-0.010380291379988194,-0.0005897891242057085,-0.00022015912691131234
-0.010929573327302933,-0.0005392251769080758,-0.0001469103153795004
-0.010998818092048168,-0.0004598552477546036,-0.00010273662337567657
-0.01097498182207346,-0.0004485679091885686,-6.906587077537552e-05
-0.011003082618117332,-0.0005120718851685524,-2.4950197257567197e-05
-0.010976766236126423,-0.0005980767891742289,2.7944190151174553e-05
-0.01100092101842165,-0.0006317251245491207,9.052526002051309e-05
-0.01097921933978796,-0.0005745197995565832,0.0001415010920027271
-0.010998256504535675,-0.0005369590944610536,0.00017656611453276128
-0.010982022620737553,-0.000524834031239152,0.0002226005744887516
-0.010995380580425262,-0.0004368460504338145,0.0002581441658549011
-0.010988484136760235,-0.0003610097337514162,0.00024857744574546814
-0.010998242534697056,-0.0003554915892891586,0.0002323247754247859
-0.010992762632668018,-0.0003770191688090563,0.00023489374143537134
-0.01099549699574709,-0.0004080909420736134,0.0002650039969012141
-0.010995338670909405,-0.0004065169196110219,0.00031845143530517817
-0.010993117466568947,-0.0003374701482243836,0.00035176679375581443
-0.010997500270605087,-0.00024973280960693955,0.00033009686740115285
-0.010981658473610878,-0.00020158760889898986,0.0002896995865739882
-0.01094465609639883,-0.0001958961656782776,0.00026001964579336345
-0.010854149237275124,-0.00024151038087438792,0.00023303132911678404
-0.010778416879475117,-0.0003071856335736811,0.00021164832287468016
-0.010684188455343246,-0.0003233671886846423,0.00019982170488219708
-0.010614393278956413,-0.00027991141541861,0.00018134135461878031
-0.010521399788558483,-0.0002236400468973443,0.00014469992311205715
-0.010453714989125729,-0.0001625547301955521,0.00010479329648660496
-0.010359032079577446,-0.0001004864097922109,7.759780419291928e-05
-0.010293865576386452,-5.4446718422695994e-05,8.325208182213828e-05
-0.0102040721103549,6.652064257650636e-06,0.00011336244642734528
-0.010138332843780518,5.875187707715668e-05,0.00013845345529261976
-0.010049749165773392,4.9310958274872974e-05,0.00014410307630896568
-0.00998979527503252,1.3141508134140167e-05,0.0001498804776929319
-0.009901701472699642,-1.4352765902003739e-05,0.00020513241179287434
-0.009830796159803867,-1.664701812842395e-05,0.00032926807762123644
-0.00975123606622219,-2.406753810646478e-05,0.00041761333704926074
-0.009685100056231022,-0.00012955941201653332,0.00042858431697823107
-0.009607111103832722,-0.0002460353134665638,0.00044550898019224405
-0.00953953992575407,-0.00021357263904064894,0.0004796669236384332
-0.009463049471378326,-0.00013330281944945455,0.0004794056876562536
-0.009393947198987007,-8.495878864778206e-05,0.00044526884448714554
-0.009322225116193295,-4.5838281948817894e-05,0.0004256106913089752
-0.009255509823560715,-1.9279768821434118e-05,0.00046163256047293544
-0.009184292517602444,1.0652217497408856e-05,0.0005661495961248875
-0.009116476401686668,7.429970719385892e-05,0.0006665464607067406
-0.009049334563314915,0.000124795624287799,0.000673407397698611
-0.008978987112641335,0.00011999820708297193,0.0005999461864121258
-0.008912299759685993,0.00011381570948287845,0.0005159162683412433
-0.0088477972894907,0.00010276514512952417,0.0004675847012549639
-0.00878588855266571,6.071162351872772e-05,0.0004538965877145529
-0.008718549273908138,2.6871841328102164e-05,0.000433791836258024
-0.008659298531711102,4.636292578652501e-05,0.0003665080585051328
-0.008496135473251343,9.548366506351158e-05,0.0002687975065782666
-0.007752335164695978,0.0001476338948123157,0.00018400071712676436
-0.005905133672058582,0.00014518310490529984,0.00012688674905803055
-0.0037912563420832157,7.86152741056867e-05,9.349895844934508e-05
-0.001890344894491136,4.704455568571575e-05,6.201423093443736e-05
-5.67148053960409e-05,8.518833783455193e-05,6.1238774833327625e-06
0.0014986461028456688,0.00010621218098094687,-5.9035584854427725e-05
0.0028965193778276443,8.25533497845754e-05,-0.00010746462066890672
0.004208029247820377,6.21553699602373e-05,-0.00014547657337971032
0.005284314975142479,0.0001106203199014999,-0.000165712132002227
0.00614161416888237,0.0002083521249005571,-0.00017855070473160595
0.006757470779120922,0.00017481530085206032,-0.00020880880765616894
0.007051854394376278,5.992380465613678e-05,-0.00022145280672702938
0.007548433728516102,5.539260382647626e-05,-0.00021537095017265528
0.00799530278891325,0.00011192243255209178,-0.0002249159151688218
0.00790184736251831,0.00016135047189891338,-0.0002217954461229965
0.0073994542472064495,0.00018547031504567713,-0.00019087980035692453
0.006676963064819574,0.0001666226889938116,-0.00014582117728423327
0.005829927045851946,0.00013852659321855754,-9.572599810780957e-05
0.005046550650149584,0.00015185769007075578,-6.500609015347436e-05
0.004260647110641003,0.00017227257194463164,-7.106947305146605e-05
0.003303155303001404,0.00015161107876338065,-7.033464498817921e-05
0.002311183139681816,0.00012418499682098627,-3.463655593805015e-05
0.0011286978842690587,0.00011018301302101463,1.4105488844506908e-05
-0.0002311596617801115,0.00010418315650895238,5.868531297892332e-05
-0.0013686923775821924,0.00010698803089326248,9.0315610577818e-05
-0.0019473377615213394,9.735910134622827e-05,8.091659401543438e-05
-0.0022172091994434595,5.009900269214995e-05,3.5303793993080035e-05
-0.002379951998591423,1.341816755484615e-07,-2.395731598880957e-06
-0.002631615847349167,-5.7467004808131605e-05,-2.2628119040746242e-05
-0.0030072310473769903,-0.00014727083907928318,-2.652049261087086e-05
-0.002934912219643593,-0.00020200887229293585,-2.8141106668044813e-05
-0.0018458148697391152,-0.00020850823784712702,-6.154112634249032e-05
-0.00040461099706590176,-0.00024218298494815826,-0.0001286518236156553
0.0007992213941179216,-0.00029247920610941947,-0.00019522604998201132
0.002120003802701831,-0.00026355666341260076,-0.00025213079061359167
0.003626300720497966,-0.00018481809820514172,-0.00029471112065948546
0.005463822279125452,-0.0001942535163834691,-0.00031976058380678296
0.007103582378476858,-0.00030631443951278925,-0.0003402385045774281
0.008151078596711159,-0.0004089006397407502,-0.0003568301326595247
0.009497909806668758,-0.0003735481295734644,-0.0004194062203168869
0.01064468827098608,-0.00029466464184224606,-0.0005654671113006771
0.010968280024826527,-0.00025811203522607684,-0.0007163204718381166
0.01097916904836893,-0.00023752446577418596,-0.0008059660904109478
0.01099043246358633,-0.00023829485871829093,-0.0008399122743867338
0.01098833978176117,-0.00023761476040817797,-0.0008396157645620406
0.010988467372953892,-0.00020090006000827998,-0.0008247009827755392
0.010990837588906288,-0.00015904277097433805,-0.0008143940358422697
0.010986441746354103,-0.00015133497072383761,-0.0008061735425144434
0.010992431081831455,-0.0001502464438090101,-0.0007869487744756043
0.010928066447377205,-0.0001581277756486088,-0.0007484415546059608
0.010369502939283848,-0.00015776990039739758,-0.000684925471432507
0.009173469617962837,-0.00010358934378018603,-0.0006085594650357962
0.008084667846560478,-7.661910785827786e-06,-0.0005480391555465758
0.006952926050871611,4.731376247946173e-05,-0.0005033833440393209
0.005658240057528019,6.073629265301861e-05,-0.0004489277780521661
0.004254243336617947,5.49106189282611e-05,-0.0003691586898639798
0.002495942637324333,1.6770702131907456e-05,-0.00026879413053393364
0.0008988959016278386,-9.628950465412345e-06,-0.00017063869745470583
-7.630385516677052e-05,2.3775826775818132e-05,-9.82102210400626e-05
-0.0006889903452247381,5.548593253479339e-05,-5.414749830379151e-05
-0.0011951783671975136,1.720667387417052e-05,-1.4353417100210208e-05
-0.0017253996338695288,-0.00015009046182967722,2.9900669687776826e-05
-0.0022139414213597775,-0.00039253573049791157,7.346171332756057e-05
-0.00218860968016088,-0.00048545870231464505,0.00010428793029859662
-0.0015303095569834113,-0.0004360755847301334,0.00011015076597686857
-0.0006525658536702394,-0.0003682191018015146,0.00010698292317101732
0.0006443460006266832,-0.00025669418391771615,9.954988490790129e-05
0.0022995576728135347,-0.0001515096373623237,7.351672684308141e-05
0.00392645550891757,-7.873441791161895e-05,4.116908894502558e-05
0.005516407545655966,-9.359014256915543e-06,1.6476060409331694e-05
0.006720390636473894,2.4093391402857378e-05,1.5794184946571477e-05
0.00751355430111289,1.775612332721721e-07,5.223452171776444e-05
0.008550088852643967,-5.865393177373335e-05,9.971007966669276e-05
0.009887080639600754,-0.0001163100459962152,0.00011166592594236135
0.010749513283371925,-0.00014919141540303826,8.93659598659724e-05
0.010901087895035744,-0.00018181002815254033,7.130564335966483e-05
0.010820693336427212,-0.0002663365157786757,8.901873661670834e-05
0.01073563564568758,-0.0003527431399561465,0.0001432748103979975
0.010651372373104095,-0.0003584585210774094,0.00020540795230772346
0.010570395737886429,-0.0003166965616401285,0.00024314648180734366
0.010486998595297337,-0.00029968618764542043,0.00026413070736452937
0.01033027470111847,-0.00028042905614711344,0.0002971272333525121
0.009687166661024094,-0.00025591644225642085,0.0003517111763358116
0.008154692128300667,-0.00022596654889639467,0.0004305575857870281
0.006631063763052225,2.6612780857249163e-05,0.0005196597776375711
0.005639341659843922,0.00048530998174101114,0.0005887810839340091
0.004370935261249542,0.0006617782637476921,0.0006224866956472397
0.002951283473521471,0.0005227985675446689,0.0006444468745030463
0.0015581247862428427,0.0003708838776219636,0.0006767256418243051
4.2791987652890384e-05,0.00026044086553156376,0.0007272522780112922
-0.0012566435616463423,0.00022298590920399874,0.0007874435395933688
0.0009125376818701625,0.00020977626263629645,0.0008378966595046222
0.00796083640307188,0.00017886137356981635,0.0008749033440835774
0.010286246426403522,0.000195349522982724,0.0008782894583418965
0.009545975364744663,0.000227361946599558,0.0008391907904297113
0.010059497319161892,0.000249552249442786,0.0007938165217638016
0.009501582011580467,0.00019668499589897692,0.0007564923726022243
0.009816945530474186,7.87984117778251e-06,0.000730186584405601
0.009439665824174881,-0.00013835776189807802,0.0007162453257478774
0.009597929194569588,-7.616123912157491e-05,0.0006984792998991907
0.009359976276755333,0.00014640660083387047,0.0006454183021560311
0.00939883477985859,0.0003298097290098667,0.000564614892937243
0.009269239380955696,0.00036791659658774734,0.0004912512958981097
0.009217661805450916,0.0003038487921003252,0.000451358180725947
0.009165226481854916,0.00024004084116313607,0.00044754863483831286
0.009052160196006298,0.00022226545843295753,0.0004450723936315626
0.009050904773175716,0.00019539931963663548,0.00040581196662969887
0.00889819860458374,0.00013346406922210008,0.00033773816539905965
0.008930469863116741,9.31516187847592e-05,0.00028112586005590856
0.008759473450481892,5.1113354857079685e-05,0.0002566022740211338
0.008804368786513805,-0.00011185263429069892,0.00026722034090198576
0.008628546260297298,-0.0003125156508758664,0.0002974884700961411
0.008679887279868126,-0.00035987241426482797,0.00031267033773474395
0.008512718603014946,-0.000324978434946388,0.00029505070415325463
0.008562702685594559,-0.00028873447445221245,0.00027014914667233825
-0.0017110472545027733,-0.0002338732301723212,0.0002510830818209797
-0.010676059871912003,-0.00022939845803193748,0.0002464799617882818
-0.010489198379218578,-0.00022444863861892372,0.00025267040473408997
-0.011306116357445717,-0.00023052707547321916,0.0002692705311346799
-0.01072811707854271,-0.00023651290393900126,0.00030419111135415733
-0.01117988396435976,-0.00014680952881462872,0.0003219150530640036
-0.010855603031814098,-3.767114321817644e-05,0.0003012307279277593
-0.011074081994593143,2.5066747184609994e-05,0.0002780120703391731
-0.010946516878902912,4.063951564603485e-05,0.0002764634555205703
-0.010997395031154156,-2.4213209144363645e-06,0.0002965328749269247
-0.011010183952748775,-8.86101697687991e-05,0.00032772342092357576
-0.010945577174425125,-0.00015540332242380828,0.00035021797521039844
-0.011051280423998833,-0.00019361911108717322,0.0003481302410364151
-0.010914117097854614,-0.00023019281798042357,0.00032506402931176126
-0.011074144393205643,-0.00026417223853059113,0.00029441487276926637
-0.01089885551482439,-0.00035228178603574634,0.0002694863942451775
-0.011082747019827366,-0.0005030242609791458,0.00025718516553752124
-0.010896017774939537,-0.0005691945552825928,0.00023959415557328612
-0.01108219288289547,-0.0005324812373146415,0.00019032234558835626
-0.010907311923801899,-0.000561917491722852,0.00011918207019334659
-0.011076662689447403,-0.0006302263936959207,5.768935807282105e-05
-0.010919746942818165,-0.0006417139666154981,1.8595519577502273e-05
-0.011062131263315678,-0.000630975526291877,4.482639724301407e-06
-0.01093580573797226,-0.000545802409760654,1.2231855635036482e-06
-0.011045056395232677,-0.00036622388870455325,-2.2459573301603086e-05
-0.010951736941933632,-0.00020690378732979298,-7.715298124821857e-05
-0.011003770865499973,-0.0001596172951394692,-0.0001259127166122198
-0.010874705389142036,-0.00018345382704865187,-0.0001469185808673501
-0.010829736478626728,-0.0002017753868130967,-0.00014278764137998223
-0.01034504733979702,-0.00019782863091677427,-0.00014137383550405502
-0.004471585154533386,-0.0002413439069641754,-0.00014775095041841269
0.005364502314478159,-0.00030572820105589926,-0.0001369511301163584
0.01013894286006689,-0.0002574225654825568,-0.00013605454296339303
0.010891872458159924,-0.000222008689888753,-0.0001610668987268582
0.01098369900137186,-0.00028391534578986466,-0.00018536295101512223
0.010805148631334305,-0.00034415305708535016,-0.00019206829892937094
0.010821469128131866,-0.00036990162334404886,-0.00017170536739286035
0.010627015493810177,-0.0003605552774388343,-0.00012618969776667655
0.010646388866007328,-0.00028920487966388464,-8.615462138550356e-05
0.010454338975250721,-0.00016936515748966485,-8.028432785067707e-05
0.010476384311914444,-8.379772771149874e-05,-9.80939221335575e-05
0.010291933082044125,-8.385843102587387e-05,-0.00011019193334504962
0.010306724347174168,-0.00016342992603313178,-9.656778274802491e-05
0.010134285315871239,-0.00030657206661999226,-5.805257387692109e-05
0.010144003666937351,-0.00045265399967320263,-2.5484820071142167e-05
0.009984827600419521,-0.0005119243869557977,-3.126953015453182e-05
0.009979980066418648,-0.00047996683861128986,-6.259763904381543e-05
0.009837510995566845,-0.00041050571599043906,-8.641286694910377e-05
0.009820302948355675,-0.00036525848554447293,-9.450876677874476e-05
0.00969469454139471,-0.0003460031293798238,-9.484798647463322e-05
0.00966059323400259,-0.0002822416427079588,-0.00010855762957362458
0.009552422910928726,-0.00015447945042978972,-0.0001582734694238752
0.009508291259407997,-4.1449457057751715e-05,-0.00022964886738918722
0.009417192079126835,2.1871554054087028e-05,-0.0002941557904705405
0.009357346221804619,6.821779243182391e-05,-0.000350074638845399
0.009280246682465076,0.00011060515680583194,-0.0003803168947342783
0.009212268516421318,0.00018759057275019586,-0.00038743787445127964
0.009145661257207394,0.00026610391796566546,-0.00039211881812661886
0.009067962877452374,0.00030877755489200354,-0.00038423575460910797
0.00901021808385849,0.00034558359766379,-0.00038262808811850846
0.008928153663873672,0.0002454700297676027,-0.0004277378902770579
0.008881219662725925,2.005055284826085e-05,-0.0004928719718009233
0.008791723288595676,-0.0001206385568366386,-0.0005101674469187856
0.008750432170927525,-0.00015328438894357532,-0.0004623142594937235
0.008659790270030499,-0.00014552079665008932,-0.0003724234411492944
0.008622350171208382,-0.00014996161917224526,-0.0002996865368913859
0.008529710583388805,-0.00020702755136881024,-0.00027542910538613796
0.008493391796946526,-0.0003156974271405488,-0.00026844441890716553
0.008402667008340359,-0.00048228836385533214,-0.0002500747505109757
0.008368954993784428,-0.0006546202930621803,-0.0002087808243231848
0.00827921461313963,-0.0007383773336187005,-0.00014005889534018934
0.008245508186519146,-0.0007400739705190063,-5.728934775106609e-05
0.008163039572536945,-0.0008566128090023994,9.841282007982954e-06
0.008130823262035847,-0.0013296484248712659,6.655740435235202e-05
0.008054127916693687,-0.002077368786558509,0.00013260536070447415
0.008019234985113144,-0.0025027708616107702,0.00021035598183516413
0.007941382005810738,-0.0023933693300932646,0.0002879395615309477
0.007895434275269508,-0.002145442645996809,0.00034024976775981486
0.007819651626050472,-0.001964121125638485,0.0003383285365998745
0.0077718645334243774,-0.0018305603880435228,0.0003031733212992549
0.007707080338150263,-0.001652624225243926,0.0002762715448625386
0.00765657564625144,-0.0014669600641354918,0.0002556729596108198
0.0075973584316670895,-0.00127795257139951,0.00023233627143781632
0.007550929673016071,-0.0010227340972051024,0.00018666595860850066
0.007495971396565437,-0.0007713771774433553,0.00012875346874352545
0.007445584516972303,-0.0005403704708442092,8.939625695347786e-05
0.007394259795546532,-0.00023357260215561837,3.404685412533581e-05
0.007340579759329557,-3.7577392504317686e-06,-6.355695222737268e-05
0.007292196154594421,6.142387428553775e-05,-0.00016567821148782969
0.007235933560878038,0.00011729779362212867,-0.00023234942636918277
0.006986094638705254,0.0002695518487598747,-0.0002521577407605946
0.00558522017672658,0.00044459427590481937,-0.00023514163331128657
0.00340093276463449,0.0005479796091094613,-0.00021819361427333206
0.0016766421031206846,0.0005991506623104215,-0.00022706603340338916
0.0004477518086787313,0.0006992096314206719,-0.00023827605764381588
-0.0006465127225965261,0.0009922723984345794,-0.00022934166190680116
-0.0018517005955800414,0.0013378671137616038,-0.00019529213022906333
-0.0031053421553224325,0.001534880488179624,-0.0001396332954755053
-0.004239217843860388,0.0016409558011218905,-8.623290341347456e-05
-0.005204579792916775,0.001735846046358347,-6.383418076438829e-05
-0.006090259645134211,0.0017499319510534406,-5.928669634158723e-05
-0.006984415464103222,0.0017441026866436005,-4.126993371755816e-05
-0.007872326299548149,0.0017512068152427673,6.982813829381485e-07
-0.008838118053972721,0.0017065980937331915,6.732169276801869e-05
-0.009735187515616417,0.0016940355999395251,0.0001436463207937777
-0.010417657904326916,0.0017791303107514977,0.0001959489454748109
-0.010854876600205898,0.0018661494832485914,0.00021743781690020114
-0.010995413176715374,0.001895993365906179,0.0002341461949981749
-0.010973431169986725,0.0017686131177470088,0.00027398811653256416
-0.011003025807440281,0.0012574678985401988,0.00035175791708752513
-0.010978057980537415,0.0008685928769409657,0.00041803650674410164
-0.010998724959790707,0.0007719185086898506,0.00044093691394664347
-0.010982031002640724,0.000736846006475389,0.00045273383148014545
-0.010995079763233662,0.0009078216389752924,0.0004300026048440486
-0.010985349304974079,0.0010592484613880515,0.0003614863089751452
-0.010992084629833698,0.0011399203212931752,0.0002885435533244163
-0.010988027788698673,0.0011701000621542335,0.00022390633239410818
-0.010756938718259335,0.0012274431064724922,0.00019010211690329015
-0.010310820303857327,0.0012452340452000499,0.00018681214714888483
-0.009728635661303997,0.0012717964127659798,0.00016300105198752135
-0.008930857293307781,0.001372751547023654,8.635772974230349e-05
-0.008094939403235912,0.001556531642563641,-1.3343618775252253e-05
-0.0073686218820512295,0.0017543119611218572,-8.907019946491346e-05
-0.006823130417615175,0.001802761689759791,-0.00011711777915479615
-0.006393494084477425,0.0017295664874836802,-0.00010534044122323394
-0.005885787308216095,0.0017048248555511236,-9.576834418112412e-05
-0.0052395593374967575,0.0017938177334144711,-0.0001188723836094141
-0.004577626474201679,0.0018211303977295756,-0.00015132005501072854
-0.004086440894752741,0.0017618697602301836,-0.0001580824318807572
-0.003733835183084011,0.0016282364958897233,-0.00013528809358831495
-0.003519499907270074,0.001478833146393299,-8.765354141360149e-05
-0.0032710395753383636,0.001295741880312562,-4.319032086641528e-05
-0.002951631788164377,0.0009036373230628669,-3.162275243084878e-05
-0.0026788751129060984,0.0002580714353825897,-3.962411210522987e-05
-0.002536975545808673,0.00010498755000298843,-3.2417767215520144e-05
-0.002435238566249609,0.000769659411162138,6.635231329710223e-06
-0.0024362157564610243,0.0013290031347423792,6.73927424941212e-05
-0.002486686920747161,0.0013288829941302538,0.00012140028411522508
-0.0025936707388609648,0.0010188417509198189,0.0001695195387583226
-0.0027209410909563303,0.0007026423700153828,0.00021724832186009735
-0.002746683545410633,0.0007382279727607965,0.00019181639072485268
-0.002673443639650941,0.0008500045514665544,0.00012351147597655654
-0.0026311292313039303,0.0008369352435693145,9.891769877867773e-05
-0.0026043218094855547,0.000753171625547111,0.00010419143654871732
-0.0025716647505760193,0.0006741788238286972,0.00013286565081216395
-0.002492222236469388,0.0006308178999461234,0.00017142850265372545
-0.002284324960783124,0.0006815221859142184,0.00018469842325430363
-0.0019819310400635004,0.0007477648323401809,0.00015007355250418186
-0.0017053969204425812,0.0007251931820064783,9.562730701873079e-05
-0.0014833887107670307,0.0006747943698428571,4.1984229028457776e-05
-0.0013823827030137181,0.000594834447838366,5.7440893215243705e-06
-0.0014552748762071133,0.0005198046565055847,-1.6497073374921456e-05
-0.0015000842977315187,0.0005124459858052433,-6.038214633008465e-05
-0.0013164817355573177,0.00060992845101282,-0.00014588897465728223
-0.0009674458997324109,0.0007027495885267854,-0.00024372839834541082
-0.0006731281755492091,0.000764629861805588,-0.0003143484937027097
-0.000534098653588444,0.0007348071085289121,-0.0003439615829847753
-0.0005233730189502239,0.0006428298074752092,-0.00032982314587570727
-0.00042973467498086393,0.0005920922267250717,-0.00031011944520287216
-0.00020626139303203672,0.0006252314778976142,-0.0003106135700363666
-6.747661245753989e-05,0.0005588614731095731,-0.00031713926000520587
-0.0001443305955035612,0.00041400466579943895,-0.0003154115111101419
-0.0003308650921098888,0.0003301140386611223,-0.00031422803294844925
-0.0005555703537538648,0.00029871557489968836,-0.0003033899120055139
-0.0007227098103612661,0.00027853247593156993,-0.0002864136768039316
-0.0009211353026330471,0.00018195566372014582,-0.00025799457216635346
-0.001248145941644907,1.6509160559508018e-05,-0.00020131647761445493
-0.0015049622161313891,-8.998032171803061e-06,-0.0001706732582533732
-0.0016131879528984427,2.060167389572598e-05,-0.00018979671585839242
-0.0017732781125232577,-8.792073458607774e-06,-0.00020829479035455734
-0.002069726586341858,-7.482813089154661e-05,-0.00018929215730167925
-0.002528165699914098,-0.00018704606918618083,-0.00012299449008423835
-0.0030239552725106478,-0.00030432516359724104,-3.334980283398181e-05
-0.003373428015038371,-0.00034468687954358757,3.275238486821763e-05
-0.0035758318845182657,-0.0003335433721076697,5.064107244834304e-05
-0.003777656937018037,-0.0003655732434708625,5.6406490330118686e-05
-0.004016896244138479,-0.00042706303065642715,8.320858614752069e-05
-0.004250864032655954,-0.0005313731962814927,0.00013228385068941861
-0.004424674902111292,-0.0006531873950734735,0.000181924260687083
-0.004424994345754385,-0.0007182358531281352,0.00019411390530876815
-0.004232180304825306,-0.0006982914637774229,0.00014445502893067896
-0.003981557209044695,-0.0006839496782049537,6.321703403955325e-05
-0.0037158301565796137,-0.0006808809121139348,-9.010412213683594e-06
-0.003347302321344614,-0.0006829723715782166,-6.42304657958448e-05
-0.002937048440799117,-0.0006978221936151385,-9.597007738193497e-05
-0.0024167431984096766,-0.0006803427240811288,-0.0001189450194942765
-0.001680437009781599,-0.0006088225054554641,-0.00017524613940622658
-0.0008571840589866042,-0.000583539716899395,-0.0002723819052334875
-0.00010380485036876053,-0.0006052125245332718,-0.00036256451858207583
0.0005790269351564348,-0.0006044624024070799,-0.00040471795364283025
0.0011340032797306776,-0.0005729027325287461,-0.00040199392242357135
0.001686730538494885,-0.0005289630498737097,-0.00041116142529062927
0.0023348298855125904,-0.000564701680559665,-0.00042905870941467583
0.0029914872720837593,-0.0006607258110307157,-0.0004120416415389627
0.0037544083315879107,-0.0006260728114284575,-0.00040016270941123366
0.004650518298149109,-0.0005744558293372393,-0.00041419913759455085
0.005519597325474024,-0.00065058987820521,-0.00041797268204391
0.006241275928914547,-0.0008139009005390108,-0.0003940336173400283
0.006858340930193663,-0.001011690474115312,-0.0003341048723086715
0.007330047432333231,-0.0011511570774018764,-0.00025187397841364145
0.007592076435685158,-0.0011647186474874616,-0.00019572110613808036
0.007629648316651583,-0.0011196513660252094,-0.00018971056852024049
0.007392541039735079,-0.001122214482165873,-0.00019646991859190166
0.00691753625869751,-0.001150699332356453,-0.00018653883307706565
0.00623611593618989,-0.0012015453539788723,-0.0001456506724935025
0.005451743025332689,-0.0012609725818037987,-7.604588608955964e-05
0.004753537476062775,-0.0012613178696483374,-1.83345237019239e-05
0.004190073814243078,-0.0011907662265002728,-8.749453627387993e-06
0.0035751438699662685,-0.0011499449610710144,-1.5030491340439767e-05
0.0028462945483624935,-0.001162771717645228,2.65805329036084e-06
0.0020975680090487003,-0.0012236189795657992,4.2253486753907055e-05
0.0013852191623300314,-0.0013308924390003085,0.00010013979044742882
0.0008366100373677909,-0.0013714316301047802,0.0001429696276318282
0.0005654692649841309,-0.0012958984589204192,0.0001395520375808701
0.0003944714553654194,-0.001227995497174561,0.00010496666800463572
0.00021629815455526114,-0.0012374056968837976,7.58856549509801e-05
0.00015700106450822204,-0.0013217910891398787,9.692172170616686e-05
0.00015800741675775498,-0.0014063753187656403,0.00015861818974372
0.000226992488023825,-0.0014224728802219033,0.00015710586740169674
0.00042378020589239895,-0.0014517640229314566,9.295834752265364e-05
0.00073013617657125,-0.0015273357275873423,5.7780307542998344e-05
0.0013362577883526683,-0.0015268658753484488,2.4229393602581695e-05
0.0021522282622754574,-0.0014673637924715877,-3.384249794180505e-05
0.0029332113917917013,-0.001426517148502171,-7.932214066386223e-05
0.00371002359315753,-0.0014229268999770284,-8.250766404671595e-05
0.004520057700574398,-0.0015043334569782019,-3.33684183715377e-05
0.0053955488838255405,-0.0015985085628926754,4.939314385410398e-05
0.006343175657093525,-0.0015605512307956815,0.00011183680908288807
0.007280414924025536,-0.0013964585959911346,0.00011535185331013054
0.008101143874228,-0.0012583413626998663,9.605118975741789e-05
0.008728783577680588,-0.0012435255339369178,0.00011244378401897848
0.008971537463366985,-0.0013216477818787098,0.00018613466818351299
0.008919773623347282,-0.001275459537282586,0.00026021376834250987
0.008849810808897018,-0.0009304946870543063,0.0002572941011749208
0.008790186606347561,-0.0004275537212379277,0.0001668131008045748
0.008719195611774921,8.77966740517877e-05,2.510750164219644e-05
0.008593427017331123,0.0007810603710822761,-0.00018141635518986732
0.007497070822864771,0.0018415325321257114,-0.0004935839679092169
0.0030051053036004305,0.0032250313088297844,-0.0009054570109583437
-0.004360286984592676,0.004814983811229467,-0.0013849282404407859
-0.010152094066143036,0.006741692312061787,-0.0019918764010071754
-0.011122840456664562,0.008980448357760906,-0.0027691416908055544
-0.010823564603924751,0.010674002580344677,-0.0035707508213818073
-0.011113833636045456,0.01081095915287733,-0.004321116488426924
-0.010885804891586304,0.010612878017127514,-0.004796929657459259
-0.011071496643126011,0.01062709465622902,-0.004899390507489443
-0.01092636026442051,0.010463963262736797,-0.004803767893463373
-0.011035766452550888,0.01044665277004242,-0.004621109925210476
-0.010957672260701656,0.010317417792975903,-0.0044545684941112995
-0.011008583940565586,0.01027971226722002,-0.004073586780577898
-0.010981012135744095,0.009544393047690392,-0.0033788366708904505
-0.010988805443048477,0.007235742639750242,-0.0025105145759880543
-0.010997507721185684,0.003963455092161894,-0.0015270618023350835
-0.01097531896084547,0.0007295904797501862,-0.0003846687322948128
-0.011010972782969475,-0.0025972684379667044,0.0009228023700416088
-0.010969950817525387,-0.005743866320699453,0.0022098266053944826
-0.011016584001481533,-0.00829576887190342,0.003259433899074793
-0.010968413203954697,-0.010056148283183575,0.004067103844136
-0.0110219307243824,-0.010876926593482494,0.004800423514097929
-0.01096575427800417,-0.010990351438522339,0.0055512674152851105
-0.011017917655408382,-0.010971775278449059,0.006239206995815039
-0.010968872345983982,-0.01100311428308487,0.0066852630116045475
-0.011019154451787472,-0.01097599882632494,0.006872409023344517
-0.010972335934638977,-0.011002374812960625,0.006934473291039467
-0.011001836508512497,-0.010967944748699665,0.006975812371820211
-0.010899334214627743,-0.010942233726382256,0.006927346345037222
-0.010846798308193684,-0.010833503678441048,0.0065876636654138565
-0.010738740675151348,-0.010769829154014587,0.0059241680428385735
-0.010658035054802895,-0.010652058757841587,0.005147633142769337
-0.010261541232466698,-0.010358225554227829,0.004357300233095884
-0.0040125008672475815,-0.007643444929271936,0.003370834281668067
0.0063552274368703365,-0.0030844525899738073,0.002091644098982215
0.010557396337389946,0.0007405036594718695,0.0007413816638290882
0.010905572213232517,0.003537010634317994,-0.0004551165329758078
0.011026976630091667,0.005953226704150438,-0.0015199956251308322
0.010914687998592854,0.00893221702426672,-0.0026657916605472565
0.010923090390861034,0.010629626922309399,-0.0038372173439711332
0.010755457915365696,0.010942460037767887,-0.004787987098097801
0.0107421288266778,0.010994015261530876,-0.005312218796461821
0.010587855242192745,0.010916907340288162,-0.005475298035889864
0.010569465346634388,0.010860216803848743,-0.005482871551066637
0.010427659377455711,0.010749932378530502,-0.005498661193996668
0.01039864495396614,0.010690223425626755,-0.0054246531799435616
0.010267415083944798,0.010586684569716454,-0.0050421482883393764
0.010230151005089283,0.010212697088718414,-0.004385263659060001
0.010112276300787926,0.00846617016941309,-0.0035733324475586414
0.010065732523798943,0.005162254441529512,-0.0026300442405045033
0.009960183873772621,0.0013414249988272786,-0.0014736605808138847
0.009906740859150887,-0.0025595021434128284,-0.00011642710887826979
0.009812576696276665,-0.006164815276861191,0.0012189914705231786
0.009752646088600159,-0.008690339513123035,0.002200136659666896
0.009666402824223042,-0.010274404659867287,0.002897091442719102
0.009599117562174797,-0.01093344483524561,0.0035690637305378914
0.009520324878394604,-0.010978816077113152,0.004266812466084957
0.009450996294617653,-0.010988876223564148,0.004804341122508049
0.009378469549119473,-0.010973507538437843,0.005072284955531359
0.009305920451879501,-0.010903822258114815,0.005167919676750898
0.009241290390491486,-0.010809269733726978,0.005215885117650032
0.009164346382021904,-0.010730004869401455,0.00522515969350934
0.009103256277740002,-0.010637992061674595,0.004972418770194054
0.00902541819959879,-0.01056379359215498,0.004390227608382702
0.008967575617134571,-0.010474929586052895,0.003700893372297287
0.008885434828698635,-0.009607057087123394,0.0029370721895247698
0.00883372500538826,-0.006842945236712694,0.0020421454682946205
0.008755834773182869,-0.0030758047942072153,0.0009464805480092764
0.008700806647539139,0.000506182957906276,-0.0002725565864238888
0.008624455891549587,0.003540943842381239,-0.0014028610894456506
0.008573109284043312,0.006293503567576408,-0.0024296860210597515
0.008496621623635292,0.009133842773735523,-0.003455080557614565
0.008444522507488728,0.010747106745839119,-0.004480856005102396
0.0083718691021204,0.0109619852155447,-0.005343384575098753
0.008319636806845665,0.010981926694512367,-0.005866639781743288
0.008248559199273586,0.010975414887070656,-0.006013918202370405
0.008195562288165092,0.010976932942867279,-0.005927798803895712
0.008128778077661991,0.010938993655145168,-0.005786065943539143
0.008074890822172165,0.010860489681363106,-0.005608953069895506
0.008008908480405807,0.010768418200314045,-0.005203896667808294
0.007956049405038357,0.010499999858438969,-0.004523806739598513
0.007894947193562984,0.009210175834596157,-0.0037024852354079485
0.007836949080228806,0.0060752625577151775,-0.0027631029952317476
0.007779295556247234,0.002433644374832511,-0.0016698287799954414
0.007722615264356136,-0.0008489500032737851,-0.00044661149149760604
0.007666012272238731,-0.00382520304992795,0.0007514542667195201
0.0076101492159068584,-0.006007818039506674,0.0016768475761637092
0.007555495947599411,-0.008107325993478298,0.002481998410075903
0.007501342333853245,-0.010274381376802921,0.0033594570122659206
0.007447661831974983,-0.010991634801030159,0.004234590567648411
0.007394086569547653,-0.010905444622039795,0.004831914324313402
0.007343537174165249,-0.010966746136546135,0.004934594500809908
0.007287812884896994,-0.010785527527332306,0.004644912667572498
0.007236943580210209,-0.010775864124298096,0.0041558826342225075
0.007183508947491646,-0.010116158984601498,0.0036769292782992125
0.007137978449463844,-0.008556620217859745,0.003211147151887417
0.007082703988999128,-0.006707062944769859,0.0027716190088540316
0.007036394905298948,-0.005332566797733307,0.0023803478106856346
0.006983469240367413,-0.0041963644325733185,0.0020146251190453768
0.006935440003871918,-0.0031042329501360655,0.0016417544102296233
0.0068775927647948265,-0.002059754217043519,0.0012814401416108012
0.006827714387327433,-0.0011203737230971456,0.00097739789634943
0.006773901637643576,-0.0004154178313910961,0.00074413837864995
0.006727556698024273,0.0002614452096167952,0.0005618124268949032
0.006676752585917711,0.0009417078690603375,0.00037095847073942423
0.006631562951952219,0.0016461893683299422,0.0001649941987125203
0.006581390276551247,0.002071581780910492,-9.000844329420943e-06
0.006536138243973255,0.0023342431522905827,-0.00010130673763342202
0.006488012615591288,0.0024202722124755383,-0.00014245729835238308
0.006440987344831228,0.002537776483222842,-0.0001578462397446856
0.006396584678441286,0.0026990908663719893,-0.00018886339967139065
0.006352520082145929,0.0029905885457992554,-0.0002696156734600663
0.00630532531067729,0.0030955602414906025,-0.00037198784411884844
0.006262992974370718,0.0030717323534190655,-0.00043337774695828557
0.006218080874532461,0.003011863911524415,-0.0004740931326523423
0.0061708171851933,0.0030131181702017784,-0.0005032670451328158
0.0061293416656553745,0.0030291767325252295,-0.0005491069750860333
0.006085589528083801,0.0029884709510952234,-0.0006018962594680488
0.0060418653301894665,0.0029045420233160257,-0.0006390140042640269
0.005999344401061535,0.002993721282109618,-0.0007194719510152936
0.0059587652795016766,0.0031029207166284323,-0.0008338963962160051
0.005916492082178593,0.003095887368544936,-0.0009144327486865222
0.005875274073332548,0.003028866834938526,-0.0009403946460224688
0.005832284223288298,0.0029347154777497053,-0.000924633932299912
0.005792784970253706,0.0029084046836942434,-0.0008889743476174772
0.005752271506935358,0.0029537996742874384,-0.0008768091793172061
0.005717151332646608,0.0030224721413105726,-0.0008992973016574979
0.005683687049895525,0.002985074184834957,-0.0009232215234078467
0.004575829952955246,0.002931118942797184,-0.0009227939299307764
0.003201834624633193,0.002864553825929761,-0.0008960951818153262
0.004089503549039364,0.0028487984091043472,-0.0008522729040123522
0.005489596165716648,0.0028692902997136116,-0.0008300780318677425
0.00554037606343627,0.0029289238154888153,-0.0008529751794412732
0.0054485066793859005,0.0029082244727760553,-0.0008852437604218721
0.00545393954962492,0.0028691289480775595,-0.0008830380393192172
0.005379385314881802,0.002738118404522538,-0.0008370776195079088
0.005371497943997383,0.0025386123452335596,-0.0007429883116856217
0.005309768486768007,0.002421652665361762,-0.0006480076699517667
0.005290794651955366,0.0024423778522759676,-0.0006017296109348536
0.005241157487034798,0.0023813333828002214,-0.0005835578776896
0.005215155426412821,0.0022217624355107546,-0.0005521542625501752
0.0051787071861326694,0.0019639423117041588,-0.0005059182876721025
0.005148704629391432,0.0017404172103852034,-0.00045854822383262217
0.005008517764508724,0.0016422757180407643,-0.00043141318019479513
-0.0013489434495568275,0.0015553944977000356,-0.00041053828317672014
-0.009280432015657425,0.0013827221700921655,-0.0003684014664031565
-0.010767772793769836,0.0013110628351569176,-0.0003539297613315284
-0.011022147722542286,0.0013274629600346088,-0.00039181619649752975
-0.0109498156234622,0.0012875964166596532,-0.00042084805318154395
-0.01100736390799284,0.0012477547861635685,-0.00040780752897262573
-0.010983706451952457,0.0011704708449542522,-0.0003370548947714269
-0.01098412461578846,0.0009952791733667254,-0.0002297841856488958
-0.01100379042327404,0.0007841220358386636,-0.0001624472060939297
-0.01096778642386198,0.0006452353554777801,-0.00017316610319539905
-0.01101671438664198,0.000538758875336498,-0.00020528899040073156
-0.01095795352011919,0.00045724105439148843,-0.00020015185873489827
-0.011023770086467266,0.00040488282684236765,-0.00015109569358173758
-0.010953371413052082,0.0004272258374840021,-8.493798668496311e-05
-0.01102617010474205,0.0005407046410255134,-4.5744836825178936e-05
-0.010952874086797237,0.0007580952951684594,-5.467564187711105e-05
-0.011026390828192234,0.000987040693871677,-7.729652134003118e-05
-0.010960419662296772,0.0011200179578736424,-6.994613067945465e-05
-0.011026004329323769,0.0011622717138379812,-3.73377806681674e-05
-0.010961061343550682,0.0011898756492882967,1.7833941456046887e-05
-0.011020705103874207,0.0013068249681964517,7.645066943950951e-05
-0.01097183022648096,0.001594302710145712,7.675826782360673e-05
-0.011014670133590698,0.001885190256871283,-1.6183092157007195e-05
-0.0109780915081501,0.0020642366725951433,-0.0001435935846529901
-0.01100832223892212,0.0021099953446537256,-0.0002447285514790565
-0.01098440308123827,0.002097576856613159,-0.0002874204365070909
-0.01100215595215559,0.0021456745453178883,-0.00032518815714865923
-0.010990331880748272,0.0022168592549860477,-0.0003725358110386878
-0.010996541939675808,0.0023230682127177715,-0.00037068547680974007
-0.01099556777626276,0.0024920692667365074,-0.00036788263241760433
-0.010991735383868217,0.0024278508499264717,-0.0003836957912426442
-0.010999906808137894,0.002048900816589594,-0.00039398184162564576
-0.01098788995295763,0.001547913416288793,-0.0003829623747151345
-0.011003242805600166,0.0010708397021517158,-0.0003410107165109366
-0.010985069908201694,0.0005950304912403226,-0.0002718662144616246
-0.011005550622940063,0.00010456363088451326,-0.0001985830022022128
-0.01098326314240694,-0.00035284459590911865,-0.00015707174316048622
-0.011006871238350868,-0.0008075434598140419,-0.00013742170995101333
-0.010982404462993145,-0.0012615270679816604,-0.0001106741838157177
-0.011007296852767467,-0.001699079293757677,-4.3456991988932714e-05
-0.01098238117992878,-0.0020829541608691216,6.046454291208647e-05
-0.011005250737071037,-0.002379371551796794,0.0001383852504659444
-0.01095649041235447,-0.002568582771345973,0.000137263341457583
-0.010907611809670925,-0.0027286699041724205,9.452831000089645e-05
-0.01080094650387764,-0.0029325000941753387,8.025825809454545e-05
-0.010740326717495918,-0.0033150396775454283,0.00012202979269204661
-0.01063734944909811,-0.0037983001675456762,0.00020198564743623137
-0.010572796687483788,-0.0039571900852024555,0.0002711449924390763
-0.010473925620317459,-0.0037289734464138746,0.00028906972147524357
-0.010405841283500195,-0.003522112499922514,0.00026658616843633354
-0.01032266579568386,-0.0034523841459304094,0.00024720243527553976
-0.010254865512251854,-0.0033647101372480392,0.0002460246905684471
-0.01016661711037159,-0.0031747135799378157,0.000255876308074221
-0.010097215883433819,-0.002955305390059948,0.0002573432866483927
-0.010013789869844913,-0.0028117927722632885,0.0002526995958760381
-0.009941823780536652,-0.0028262389823794365,0.00026613875525072217
-0.0098654143512249,-0.0029365995433181524,0.0002504696312826127
-0.009791821241378784,-0.0030064706224948168,0.0001898629270726815
-0.009721590206027031,-0.003014439484104514,0.00014740783080924302
-0.009645598940551281,-0.0029109008610248566,0.0001481149229221046
-0.009577983058989048,-0.0026638717390596867,0.0001975976920221001
-0.009499740786850452,-0.002453720197081566,0.00028481680783443153
-0.009436740539968014,-0.002373975468799472,0.00036623631604015827
-0.009359677322208881,-0.0023800109047442675,0.00041622258140705526
-0.009298601187765598,-0.0024382625706493855,0.00045751038123853505
-0.009223577566444874,-0.002489180536940694,0.0005046058795414865
-0.009164254181087017,-0.002506920835003257,0.0005611092201434076
-0.00909093301743269,-0.002487013814970851,0.0006242308882065117
-0.0090340506285429,-0.0024502191226929426,0.0006713569746352732
-0.008959991857409477,-0.0024010350462049246,0.000673884991556406
-0.008905076421797276,-0.002363481093198061,0.0006480106967501342
-0.008833648636937141,-0.002342053921893239,0.0006293946062214673
-0.008778405375778675,-0.0023575755767524242,0.0006277468055486679
-0.008709915913641453,-0.002410103101283312,0.0006507236394099891
-0.008653810247778893,-0.00245376187376678,0.0006767681916244328
-0.00858629122376442,-0.0024202128406614065,0.0006575729348696768
-0.008509393781423569,-0.0023311993572860956,0.0005996975232847035
-0.00819213967770338,-0.0022337078116834164,0.0005495634977705777
-0.006094241049140692,-0.00211612181738019,0.0005404967232607305
-0.00331330019980669,-0.001992967212572694,0.0005759221967309713
-0.0015087230131030083,-0.001881836331449449,0.0005833182367496192
-2.8406719138729386e-05,-0.001758543192408979,0.0005495839286595583
0.0011800238862633705,-0.0016072383150458336,0.0005289080436341465
0.002593043725937605,-0.0014434278709813952,0.00048515433445572853
0.0038762970361858606,-0.0013061969075351954,0.0004096076008863747
0.005100300535559654,-0.001182909240014851,0.0003419102285988629
0.006165912840515375,-0.0010527445701882243,0.0003000579890795052
0.007160760462284088,-0.0009241821244359016,0.0002876486396417022
0.008094379678368568,-0.0008137375698424876,0.00029312909464351833
0.009002314880490303,-0.0006744842976331711,0.0002816093328874558
0.009879359975457191,-0.0004915960598737001,0.00023724361381027848
0.010573741048574448,-0.00035425828536972404,0.00020228778885211796
0.010956943035125732,-0.0002907814341597259,0.00019696899107657373
0.010975549928843975,-0.0002251634723506868,0.00022143672686070204
0.010999920777976513,-9.918885916704312e-05,0.0002674620191100985
0.010977841913700104,4.229484693496488e-05,0.0002961226273328066
0.011000437662005424,0.00015678362979087979,0.0002697613963391632
0.010977912694215775,0.0002369052526773885,0.00022627977887168527
0.010999864898622036,0.00036622871994040906,0.000208370023756288
0.01097890455275774,0.0006035930127836764,0.00021663411462213844
0.010998530313372612,0.0007827112567611039,0.0002542998699937016
0.010980511084198952,0.0008140347199514508,0.0002916206431109458
0.010996717028319836,0.0008581035654060543,0.0002769451530184597
0.010982470586895943,0.0009389840997755527,0.00021830030891578645
0.010994665324687958,0.000965667946729809,0.00016356994456145912
0.010984566062688828,0.0009535659337416291,0.0001276404655072838
0.010992570780217648,0.0008996923570521176,0.00010935506725218147
0.010986622422933578,0.0007442304049618542,9.014668466988951e-05
0.010990586131811142,0.0005789031856693327,6.075309283914976e-05
0.01098850928246975,0.0005192781100049615,3.3420787076465786e-05
0.010988820344209671,0.0005758816259913146,-2.9736424039583653e-05
0.010990135371685028,0.0006642286898568273,-0.00012131778203183785
0.010987347923219204,0.0007610433385707438,-0.00017978392133954912
0.010991443879902363,0.0008532873471267521,-0.00019434111891314387
0.01094945427030325,0.0008556591928936541,-0.00017603757441975176
0.010878077708184719,0.0007746825576759875,-0.00013769668294116855
0.010784372687339783,0.0006914411787874997,-0.0001183163549285382
0.010704119689762592,0.0006385920569300652,-0.0001430443226126954
0.010614283382892609,0.0006122900522314012,-0.0001826590596465394
0.010539158247411251,0.0006015801336616278,-0.00019994305330328643
0.01045146118849516,0.0005358546040952206,-0.00017531783669255674
0.01038263738155365,0.00042664920329116285,-0.00012571729894261807
0.010295362211763859,0.00038075330667197704,-9.915578266372904e-05
0.01022481918334961,0.0004302692541386932,-0.0001296964182984084
0.010137129575014114,0.0005172847886569798,-0.00017997711256612092
0.010066021233797073,0.0006649481365457177,-0.0002007566945394501
0.009985093958675861,0.0008555680396966636,-0.000178229296579957
0.009914922527968884,0.0009816791862249374,-0.0001242947910213843
0.009831244125962257,0.001029724720865488,-7.841899059712887e-05
0.009764394722878933,0.0010687937028706074,-6.889532960485667e-05
0.009686875157058239,0.0011120660929009318,-7.28205413906835e-05
0.009618956595659256,0.0012308075092732906,-8.316814637510106e-05
0.00954065565019846,0.0014631084632128477,-0.00010829390521394089
0.009472581557929516,0.001523444545455277,-0.000124657730339095
0.009399333037436008,0.0013405149802565575,-0.0001534670009277761
0.009331556968390942,0.0011056623188778758,-0.00018775912758428603
0.009262735024094582,0.0009073533583432436,-0.000196643071831204
0.009191999211907387,0.0008218070724979043,-0.00024368840968236327
0.008985761553049088,0.0007997086504474282,-0.00033972563687711954
0.008614481426775455,0.0007613470079377294,-0.00041969920857809484
0.008267487399280071,0.0006640195497311652,-0.0004611225740518421
0.007971693761646748,0.0005378070054575801,-0.00046046642819419503
0.007703554350882769,0.0004178485251031816,-0.00043821826693601906
0.00744358217343688,0.00035159059916622937,-0.0004443427606020123
0.007184045389294624,0.00032765031210146844,-0.0004951238515786827
0.006897341925650835,0.0003167595132254064,-0.0005479838000610471
0.006608828902244568,0.0002879523381125182,-0.0005766479298472404
0.006302461959421635,0.00020665989723056555,-0.0005702121998183429
0.005989907309412956,0.00014886651479173452,-0.0005247842636890709
0.005711005534976721,0.0001974523183889687,-0.0004788639780599624
0.00548431184142828,0.00031693876371718943,-0.00047779371379874647
0.005256700329482555,0.00041686627082526684,-0.0004969207220710814
0.005010589957237244,0.000494231702759862,-0.0004901742795482278
0.004746067803353071,0.0004946164553985,-0.00045130710350349545
0.004475589841604233,0.0004045921959914267,-0.00038559213862754405
0.004245240706950426,0.00037505850195884705,-0.00032516071223653853
0.004076252691447735,0.0004723140154965222,-0.00031955400481820107
0.003891661763191223,0.0005637022550217807,-0.00035094129270873964
0.0036834673956036568,0.0005903695710003376,-0.000364404491847381
0.00349075673148036,0.0006498506991192698,-0.00035375720472075045
0.00332682766020298,0.0008065261645242572,-0.00033087015617638826
0.003162700217217207,0.000873974000569433,-0.0003200277278665453
0.002952654380351305,0.0007738597923889756,-0.00031352025689557195
0.002718816278502345,0.0006147167296148837,-0.0002780610229820013
0.0025446012150496244,0.0005613801768049598,-0.0002579691354185343
0.0024062825832515955,0.000584243331104517,-0.0002718575415201485
0.002259600441902876,0.0005699368775822222,-0.00027593495906330645
0.002103994367644191,0.00053515745094046,-0.00025027242372743785
0.0019249423639848828,0.00041618620161898434,-0.0001787359215086326
0.0017538758693262935,0.00024692434817552567,-7.816586003173143e-05
0.001624861266463995,0.00010499157360754907,-7.854786417738069e-06
0.0015177240129560232,2.0601758023985894e-06,3.6557362363964785e-06
0.0013937281910330057,-6.263989780563861e-05,-8.430843081441708e-06
0.0012611501151695848,-7.531152368756011e-05,-9.399171176482923e-06
0.0011257805163040757,-0.00012061751476721838,1.8070830265060067e-05
0.0009955043205991387,-0.00026441249065101147,5.8529971283860505e-05
0.0008983150473795831,-0.00042363189277239144,7.15713613317348e-05
0.0008316593593917787,-0.0004574334598146379,4.645962326321751e-05
0.0007463805959559977,-0.0003804195439442992,2.9887116397731006e-05
0.0006332920165732503,-0.00026897835778072476,4.292216544854455e-05
0.0005116725224070251,-0.00016158023208845407,7.722280133748427e-05
0.00037660219823010266,-0.00011113017535535619,0.0001456764293834567
0.00025849041412584484,-9.213609882863238e-05,0.00021818673121742904
0.00019185121345799416,-5.087163663120009e-05,0.00024561898317188025
0.00014671131793875247,3.313302295282483e-05,0.00022971598082222044
0.00010455556912347674,0.00018144665227737278,0.0001961646630661562
4.066023029736243e-05,0.00036392358015291393,0.00015958474250510335
-3.876916161971167e-05,0.0005119749112054706,0.0001556138158775866
-9.309179586125538e-05,0.0006492861430160701,0.00015473375970032066
-0.0001397717569489032,0.0007766414782963693,0.0001303223689319566
-0.0001918549824040383,0.0009094910346902907,0.00011250476381974295
-0.00022546519176103175,0.0010782781755551696,9.971485997084528e-05
-0.0002627491776365787,0.0012233894085511565,0.00011729384277714416
-0.00031816927366890013,0.0013166966382414103,0.0001363127084914595
-0.00038234982639551163,0.0013589337468147278,0.0001198617901536636
-0.0004699552373494953,0.0013249474577605724,0.00011870048911077902
-0.000569935655221343,0.0011939487885683775,0.0001688952324911952
-0.0006380733102560043,0.0010210623731836677,0.0002308124676346779
-0.0006642622756771743,0.0008642854518257082,0.00023982985294423997
-0.0006815494270995259,0.0007311291410587728,0.00020956086518708616
-0.0007139826193451881,0.000609277980402112,0.0001838241150835529
-0.0007835342548787594,0.00042780733201652765,0.00021510919032152742
-0.0008673339616507292,0.00017615899560041726,0.0003042510652448982
-0.0009080060408450663,-4.2151750676566735e-05,0.00037841557059437037
-0.0009073397377505898,-0.00019852459081448615,0.0003899718576576561
-0.0009239580249413848,-0.00038579528336413205,0.00038864242378622293
-0.0009871479123830795,-0.0006597503670491278,0.00044058068306185305
-0.0010852264240384102,-0.0010141206439584494,0.0005630512023344636
-0.0011725950753316283,-0.0013761434238404036,0.0007296366384252906
-0.0012155823642387986,-0.0016937570180743933,0.0009038532734848559
-0.001229572924785316,-0.0019906265661120415,0.0010601270478218794
-0.001240059733390808,-0.002281793626025319,0.0011871012393385172
-0.00121198664419353,-0.002484374912455678,0.001263049547560513
-0.0010679583065211773,-0.002369180554524064,0.0011866528075188398
-0.0009456930565647781,-0.00204189564101398,0.0010339046129956841
-0.0009360983385704458,-0.0017989090410992503,0.0009325307328253984
-0.0009906167397275567,-0.0017335611628368497,0.0008833058527670801
-0.0010342479217797518,-0.0017522746929898858,0.0008758121985010803
-0.0009132156847044826,-0.0014583670999854803,0.0007465420057997108
-0.0007165552233345807,-0.0008328151889145374,0.00042477791430428624
-0.0005223146872594953,-8.197769057005644e-05,-2.0052479158039205e-05
-0.0003533194831106812,0.0007462236098945141,-0.0005353775923140347
-0.0002495961089152843,0.0015730037121102214,-0.0010358707513660192
-0.0002188116923207417,0.0023575720842927694,-0.0014753510477021337
-0.00031379132997244596,0.002890966832637787,-0.0017585684545338154
-0.0004480472416616976,0.0031123878434300423,-0.0018855179660022259
-0.0005028347950428724,0.003259088145568967,-0.001995926257222891
-0.000532624137122184,0.0034103957004845142,-0.0021336772479116917
-0.0006114909192547202,0.003483362263068557,-0.002228641649708152
-0.0006471376400440931,0.0036078738048672676,-0.002309506991878152
-0.0005504429573193192,0.003985022660344839,-0.002519570989534259
-0.00042003131238743663,0.00448574498295784,-0.0028729853220283985
-0.0003865643811877817,0.004860691260546446,-0.003216900397092104
-0.00044820652692578733,0.005064613651484251,-0.0034387113992124796
-0.0006395607488229871,0.005003687459975481,-0.0034715186338871717
-0.0010099540231749415,0.004386443179100752,-0.003174080280587077
-0.001359746791422367,0.003359890077263117,-0.002606715075671673
-0.001581252901814878,0.0022533435840159655,-0.0019894337747246027
-0.001845549326390028,0.0009136023581959307,-0.00131230428814888
-0.002189879771322012,-0.0006680841906927526,-0.0004965538973920047
-0.0025767982006073,-0.002554261591285467,0.0005905437865294516
-0.0027546416968107224,-0.004194262903183699,0.0016322139417752624
-0.0026908444706350565,-0.005196626763790846,0.0023198644630610943
-0.002660537837073207,-0.006029918789863586,0.0028637421783059835
-0.002692680573090911,-0.006848020013421774,0.003403276205062866
-0.0027079631108790636,-0.007688240148127079,0.003969928715378046
-0.00260603753849864,-0.008365513756871223,0.004374614451080561
-0.0024134935811161995,-0.00872914120554924,0.00457543833181262
-0.0022211538162082434,-0.008713023737072945,0.004632251337170601
-0.002096202690154314,-0.00855040643364191,0.004689245019108057
-0.001973163103684783,-0.00830693170428276,0.00474529666826129
-0.001701858825981617,-0.007758759893476963,0.004600548185408115
-0.0013169029261916876,-0.006764753721654415,0.004130855668336153
-0.000996991409920156,-0.005557127296924591,0.0034811259247362614
-0.0007694334490224719,-0.0042974925599992275,0.002807814395055175
-0.0005495003424584866,-0.00290652341209352,0.002090069465339184
-0.00025592101155780256,-0.001236019772477448,0.0012312975013628602
8.478896779706702e-05,0.0007347389473579824,0.0001777758152456954
0.00031740067061036825,0.0026198741979897022,-0.0008904988644644618
0.00043112554703839123,0.004241332411766052,-0.0018421569839119911
0.0005416999338194728,0.005800958722829819,-0.002742461394518614
0.0006281477399170399,0.007377033121883869,-0.0036479788832366467
0.0005937511450611055,0.008716464042663574,-0.004418221767991781
0.00040082185296341777,0.009586388245224953,-0.004913645330816507
0.00010405376087874174,0.009817530401051044,-0.005079560447484255
-0.00016994767065625638,0.009647700004279613,-0.005074907559901476
-0.0003675319312606007,0.009393054060637951,-0.005039078649133444
-0.0005575662944465876,0.009102819487452507,-0.004982219077646732
-0.0009070886299014091,0.00837708730250597,-0.0046546561643481255
-0.0013101502554491162,0.007259772624820471,-0.004026615060865879
-0.0016375617124140263,0.006078227888792753,-0.0033214553259313107
-0.0019476079614832997,0.0047547779977321625,-0.0025603813119232655
-0.002266497351229191,0.0031735473312437534,-0.0016999385552480817
-0.0026936973445117474,0.0010551456362009048,-0.0005696007865481079
-0.003048378974199295,-0.001291697146371007,0.0007424752111546695
-0.0031054799910634756,-0.0030487545300275087,0.0018018849659711123
-0.003028149949386716,-0.004198866430670023,0.002521249232813716
-0.0029903871472924948,-0.005173568148165941,0.003125988645479083
-0.0029876541811972857,-0.0061637950129806995,0.0037205559201538563
-0.0029204997699707747,-0.007050975225865841,0.0042359111830592155
-0.0027541823219507933,-0.007618308067321777,0.004568338859826326
-0.0025544781237840652,-0.007865644060075283,0.004726986400783062
-0.0024072695523500443,-0.007985705509781837,0.0048223137855529785
-0.002296878257766366,-0.008067877031862736,0.004917506594210863
-0.0020893809851258993,-0.007878128439188004,0.004886627197265625
-0.001725601963698864,-0.007168879266828299,0.004543278831988573
-0.0013539277715608478,-0.0060988496989011765,0.003942639566957951
-0.0010852296836674213,-0.004974729381501675,0.0032998186070472
-0.0008558966801501811,-0.003770583774894476,0.002649991773068905
-0.0005852798349224031,-0.002310615498572588,0.0019032882992178202
-0.00022220156097318977,-0.0003669006982818246,0.0009477473795413971
9.212549775838852e-05,0.001793564180843532,-0.0001280319702345878
0.00021074755932204425,0.0035989624448120594,-0.001065942575223744
0.00015245111717376858,0.004775256384164095,-0.0017137746326625347
-9.270723239751533e-05,0.005196558311581612,-0.002037192229181528
-0.00044359613093547523,0.004879143089056015,-0.001988328294828534
-0.0008090343326330185,0.00404800521209836,-0.0016434254357591271
-0.0011234735138714314,0.0030143887270241976,-0.0011740413028746843
-0.0013073490699753165,0.002127146115526557,-0.00072883116081357
-0.0013548142742365599,0.0016152437310665846,-0.0004505215911194682
-0.001335611566901207,0.0013242382556200027,-0.00032683604513294995
-0.0013538619969040155,0.0009786095470190048,-0.00023302884073927999
-0.0013815626734867692,0.0005696199368685484,-9.511621465208009e-05
-0.001399706001393497,0.00020402857626322657,6.368544563883916e-05
-0.0014087449526414275,-7.864376675570384e-05,0.00020565904560498893
-0.0013908400433138013,-0.0002628291258588433,0.0002872805343940854
-0.0013574948534369469,-0.00040322993299923837,0.0003107492229901254
-0.0013301294529810548,-0.000521433656103909,0.0003132872807327658
-0.0012987941736355424,-0.000552615150809288,0.00029479950899258256
-0.0012698486680164933,-0.0005041238619014621,0.000266784627456218
-0.0012492361711338162,-0.00041902161319740117,0.00024985094205476344
-0.0012141831684857607,-0.00030906058964319527,0.00022824549523647875
-0.0011701298644766212,-0.00018057800480164587,0.0001608462043805048
-0.0011356042232364416,-5.0822571211028844e-05,6.260853842832148e-05
-0.0011152592487633228,8.706438529770821e-05,-3.224054307793267e-05
-0.0011192032834514976,0.00019794677791651338,-9.513280383544043e-05
-0.0011548137990757823,0.00022877387527842075,-0.0001188179012387991
-0.001152118551544845,0.00018944928888231516,-0.00013204342394601554
-0.0010835473658517003,0.00023199181305244565,-0.000187160141649656
-0.001025823294185102,0.0003970910038333386,-0.00028278655372560024
-0.0010209956672042608,0.0005503120482899249,-0.000369863846572116
-0.0010372232645750046,0.0006621287320740521,-0.0004351409734226763
-0.0010515671456232667,0.0007540261140093207,-0.00047071470180526376
-0.001046250225044787,0.0009192443685606122,-0.0005019173840992153
-0.0010568838333711028,0.0010455746669322252,-0.0005146477487869561
-0.001078327652066946,0.0011097501264885068,-0.0004848272947128862
-0.0010680517880246043,0.0012474299874156713,-0.0005035075009800494
-0.001058887573890388,0.0013384860940277576,-0.000579348299652338
-0.001072219223715365,0.0013652460183948278,-0.0006398767000064254
-0.0011098207905888557,0.0013454282889142632,-0.0006539487512782216
-0.0011669209925457835,0.0012258769711479545,-0.0006125299260020256
-0.0012011551298201084,0.0010565111879259348,-0.0005435489001683891
-0.001178900827653706,0.0009860566351562738,-0.0005111372447572649
-0.0011325703235343099,0.0009715582709759474,-0.0005453805788420141
-0.001115529565140605,0.0008582926820963621,-0.000590156763792038
-0.00113387661986053,0.0006333288620226085,-0.0005993017111904919
-0.0011704949429258704,0.0003632628940977156,-0.0005714154103770852
-0.001196344499476254,0.00014463374100159854,-0.0005306077655404806
-0.0011791832512244582,1.9050921764574014e-05,-0.0005117637338116765
-0.0011425130069255829,-0.00015773462655488402,-0.0005321712815202773
-0.0011323925573378801,-0.0005018756492063403,-0.0005498725804500282
-0.0011354287853464484,-0.0008077544625848532,-0.0005405688425526023
-0.0011384743265807629,-0.0010399413295090199,-0.0005154174868948758
-0.001158028724603355,-0.0013200758257880807,-0.00046742259291931987
-0.0011633558897301555,-0.0015586423687636852,-0.0004161785764154047
-0.0011383973760530353,-0.0016568884020671248,-0.0004094397881999612
-0.0011173401726409793,-0.0016473880968987942,-0.00043985468801110983
-0.0011133719235658646,-0.001589715015143156,-0.000484592019347474
-0.0011231261305510998,-0.0015533692203462124,-0.0005268027889542282
-0.001144869951531291,-0.0015628626570105553,-0.0005149439093656838
-0.0011525775771588087,-0.0015459653222933412,-0.0004799973394256085
-0.001155897043645382,-0.0015205336967483163,-0.00045898318057879806
-0.0011707216035574675,-0.0014648402575403452,-0.00042855768697336316
-0.001157592749223113,-0.001255303737707436,-0.00044575828360393643
-0.0011386171681806445,-0.0010190794710069895,-0.00052494095871225
-0.0011337028117850423,-0.0008721620542928576,-0.0005962023860774934
-0.0011271738912910223,-0.0007622487610206008,-0.0006139704491943121
-0.0011382598895579576,-0.0007094834581948817,-0.0005759363994002342
-0.001166324713267386,-0.0006818855181336403,-0.000500488851685077
-0.0011728209210559726,-0.0005386121920309961,-0.00044324222835712135
-0.0011573610827326775,-0.0002928668982349336,-0.0004438528558239341
-0.0011507085291668773,-7.79933252488263e-05,-0.0004637683741748333
-0.0011651108507066965,4.479223571252078e-05,-0.00045135317486710846
-0.001207059482112527,5.625084213534137e-06,-0.0003710027376655489
-0.0012464583851397038,-0.00023081032850313932,-0.0002251115656690672
-0.0012384145520627499,-0.0004886959795840085,-7.851146074244753e-05
-0.0011941664852201939,-0.0005246154614724219,-2.8790460419259034e-05
-0.0011675357818603516,-0.00041202467400580645,-6.471197411883622e-05
-0.0011734471190720797,-0.00037415121914818883,-9.678806964075193e-05
-0.0012016214895993471,-0.00042199864401482046,-7.039385673124343e-05
-0.0012392925564199686,-0.00041837795288302004,1.229721965501085e-05
-0.001248738612048328,-0.000247629766818136,9.070550004253164e-05
-0.0012198884505778551,-1.0699503945943434e-05,0.00010281249706167728
-0.0012056659907102585,6.55237672617659e-05,8.371804869966581e-05
-0.0012178421020507812,3.735819336725399e-05,8.941056876210496e-05
-0.0012224478414282203,0.00014105527952779084,0.00010205910075455904
-0.0012153947027400136,0.0003453083336353302,9.659908391768113e-05
-0.001195533899590373,0.0004986177082173526,7.264026498887688e-05
-0.0011907585430890322,0.000539060216397047,6.861407746328041e-05
-0.001203945023007691,0.0005997054977342486,0.00010477004980202764
-0.0011796931503340602,0.0008547145407646894,0.00010407374065835029
-0.0011442697141319513,0.001050366903655231,5.8343324781162664e-05
-0.0011321055935695767,0.0010356609709560871,3.75789386453107e-05
-0.0011431718012318015,0.000970725086517632,6.0650483646895736e-05
-0.0011689502280205488,0.0009494788246229291,0.00011875350901391357
-0.001177881727926433,0.0009885982144623995,0.00018172395357396454
-0.0011416940251365304,0.0009881878504529595,0.00020342657808214426
-0.0010848977835848927,0.0006969524547457695,0.00016187195433303714
-0.001050446298904717,0.00031629783916287124,8.70155927259475e-05
-0.0010456483578309417,0.00032795354491099715,1.142607015935937e-05
-0.0010674321092665195,0.0006091268733143806,-9.952817890734877e-06
-0.001096759457141161,0.000821018242277205,3.8006666727596894e-05
-0.0011013539042323828,0.0009548240923322737,8.644087938591838e-05
-0.0010775672271847725,0.0011148530757054687,7.366714271483943e-05
-0.0010628427844494581,0.001228613080456853,3.5662604204844683e-05
-0.0010678587714210153,0.0012858842965215445,2.8018452212563716e-05
-0.0010901907226070762,0.0012588934041559696,6.238758214749396e-05
-0.001122401561588049,0.001090064411982894,0.0001346507342532277
-0.0011251468677073717,0.0009149783872999251,0.0001975592749658972
-0.001089912373572588,0.0008055705111473799,0.00019669189350679517
-0.001065311604179442,0.0006930517847649753,0.0001523654646007344
-0.0010578954825177789,0.0005301000783219934,0.00012034538667649031
-0.001061691902577877,0.0002866334398277104,0.00012815193622373044
-0.0010764518519863486,7.25873323972337e-05,0.00017316719458904117
-0.0010824670316651464,8.81170853972435e-05,0.0001972197787836194
-0.0010938165942206979,0.000170693572727032,0.00019586068810895085
-0.0011089978506788611,1.567184335726779e-05,0.00020985622541047633
-0.001086079515516758,-0.00014096555241849273,0.0001928377605509013
-0.001052528852596879,-0.0001669411431066692,0.00012722537212539464
-0.0010335856350138783,-0.0001818123273551464,7.208621536847204e-05
-0.0010195944923907518,-0.00024518807185813785,5.6099368521245196e-05
-0.0010183594422414899,-0.0005341387586668134,9.268106077797711e-05
-0.0010151418391615152,-0.0008288949611596763,0.0001565808488521725
-0.0009817392565310001,-0.0007824781932868063,0.0001749343064147979
-0.0009373418870382011,-0.0004905987880192697,0.00012623572547454387
-0.000914550619199872,-0.0002468339807819575,7.766702037770301e-05
-0.0009129865211434662,-0.00012836135283578187,7.347371865762398e-05
-0.0009168474934995174,-5.6445256632287055e-05,0.0001124317932408303
-0.0009004636667668819,8.176525443559512e-05,0.00016336762928403914
-0.0008495831280015409,0.0003410122881177813,0.000173475724295713
-0.000785064825322479,0.0006290811579674482,0.00012306075950618833
-0.0007457765750586987,0.0008329050615429878,6.033095269231126e-05
-0.0007318102288991213,0.0009689311846159399,3.402197762625292e-05
-0.0007283847662620246,0.0010746866464614868,5.0896698667202145e-05
-0.000727449485566467,0.0011427394347265363,9.797263919608667e-05
-0.000699806900229305,0.0012511102249845862,0.0001300432049902156
-0.000640008132904768,0.0014351136051118374,0.00010756519623100758
-0.0006070922245271504,0.0015849028714001179,6.0055306676076725e-05
-0.0006077539292164147,0.001652093487791717,4.141876343055628e-05
-0.0006262476090341806,0.0016276937676593661,6.069529626984149e-05
-0.0006552340928465128,0.0014841363299638033,0.00011071254266425967
-0.000655310635920614,0.0013468987308442593,0.0001310586230829358
-0.0006509848753921688,0.0011818422935903072,0.00012326400610618293
-0.0006584281800314784,0.0009839500999078155,0.00013563323591370136
-0.0006448272033594549,0.0008738196920603514,0.00011998055560979992
-0.0006328100571408868,0.0007396686705760658,7.147077849367633e-05
-0.0006309330929070711,0.00057211983948946,3.605009987950325e-05
-0.0006428048363886774,0.00038022451917640865,3.277372525190003e-05
-0.0006740504177287221,0.0001124752961914055,7.669121987419203e-05
-0.0007043363875709474,-0.00019573650206439197,0.00014877000648994
-0.0007001877529546618,-0.0003951111575588584,0.00017832052253652364
-0.0006675564800389111,-0.00040122505743056536,0.00012466187763493508
-0.0006449386128224432,-0.0003161198692396283,4.318312130635604e-05
-0.0006469110958278179,-0.0002516572712920606,-2.8194185688334983e-06
-0.0006756919319741428,-0.0003180476778652519,1.4830304280621931e-05
-0.0007008474203757942,-0.00046350370394065976,7.723637099843472e-05
-0.0006823341245763004,-0.00047612073831260204,0.00011968260514549911
-0.0006377091631293297,-0.0003128829412162304,9.792829951038584e-05
-0.0006236895569600165,-0.00017792213475331664,6.293771002674475e-05
-0.0006419134442694485,-0.00011929464380955324,7.134788029361516e-05
-0.0006705063278786838,-5.1321043429197744e-05,0.00011042215919587761
-0.0006925548077560961,6.132651469670236e-05,0.00015101616736501455
-0.0006806893507018685,0.00026763364439830184,0.00015552314289379865
-0.0006482811877503991,0.0005095632513985038,0.0001191271367133595
-0.000637018121778965,0.0006883539608679712,8.452293695881963e-05
-0.0006391636561602354,0.0008963217260316014,7.033010479062796e-05
-0.0006337470258586109,0.001279497635550797,5.15287320013158e-05
-0.0006366391316987574,0.0016024850774556398,4.4196385715622455e-05
-0.0006489305524155498,0.001625181408599019,4.6918019506847486e-05
-0.0006672544404864311,0.001458159415051341,4.264557355782017e-05
-0.0006905242917127907,0.001366166747175157,4.49016151833348e-05
-0.0006813643267378211,0.0014723078347742558,4.1501443774905056e-06
-0.0006734837079420686,0.0016825157217681408,-7.195042417151853e-05
-0.0006961507606320083,0.001976827159523964,-0.00011268475645920262
-0.000724948535207659,0.001968679018318653,-0.00011378405906725675
-0.0007512346492148936,0.0015268698334693909,-8.489769243169576e-05
-0.0007622194243595004,0.0010211938060820103,-4.207070742268115e-05
-0.0007423619972541928,0.0007079873466864228,-3.190210190950893e-05
-0.0007236265228129923,0.0005327708786353469,-7.111570448614657e-05
-0.0007380428141914308,0.0003177691251039505,-0.00011060736142098904
-0.0007704965537413955,4.9965241487370804e-05,-0.0001117638821597211
-0.0008086279849521816,-0.0002545755705796182,-5.602778765023686e-05
-0.0008363492670468986,-0.000542873633094132,4.674326191889122e-05
-0.0008353401208296418,-0.0007934799650683999,0.00014395148900803179
-0.0008106987806968391,-0.0010218801908195019,0.00018513805116526783
-0.0007872257265262306,-0.0012873413506895304,0.0001862613280536607
-0.0007731557707302272,-0.0015017667319625616,0.00018888498016167432
-0.0007795793935656548,-0.0016704528825357556,0.00020737372688017786
-0.0008015449857339263,-0.0018641818314790726,0.00020556626259349287
-0.0007934683817438781,-0.001988077536225319,0.00013747302000410855
-0.0007432613638229668,-0.0019518645713105798,-7.087473932188004e-06
-0.0007022293284535408,-0.0018793451599776745,-0.00023339764447882771
-0.0006855090032331645,-0.001887933467514813,-0.0003525707870721817
-0.0006874203099869192,-0.0019516710890457034,-0.00024717405904084444
-0.0006860888679511845,-0.00182535988278687,-8.109668124234304e-05
-0.000662853242829442,-0.0014131796779111028,-5.843567123520188e-06
-0.0006589669501408935,-0.0011940492549911141,-2.40524150285637e-05
-0.0006716072675772011,-0.0012500161537900567,-2.1210040358710103e-05
-0.0006447564228437841,-0.001191977527923882,-1.6701042113709264e-05
-0.0006051445379853249,-0.0009721160167828202,-5.412453174358234e-05
-0.0005898793460801244,-0.0007091520819813013,-0.00010445249790791422
-0.0005954152438789606,-0.000492689898237586,-0.00012040146975778043
-0.0006169130210764706,-0.00037078899913467467,-8.261740003945306e-05
-0.0006291567115113139,-0.000285355286905542,-2.6754412829177454e-05
-0.0006101627950556576,-0.00015468845958821476,-1.0179121090914123e-05
-0.0005865174462087452,-5.834193871123716e-05,-3.8661524740746245e-05
-0.0005927398451603949,-0.00010759652650449425,-4.4331758545013145e-05
-0.0006189867272041738,-0.0002541949797887355,-1.2043754395563155e-05
-0.0006532215629704297,-0.00042938374099321663,3.9896887756185606e-05
-0.0006778789102099836,-0.0005937870009802282,8.532981155440211e-05
-0.0006690665613859892,-0.0007169749005697668,0.00010148790897801518
-0.0006395165692083538,-0.0008474739734083414,7.89225086919032e-05
-0.0006287365104071796,-0.0010641603730618954,5.9096615586895496e-05
-0.0006373117794282734,-0.0012887909542769194,5.5047676141839474e-05
-0.0006605802336707711,-0.0014882769901305437,6.0740600019926205e-05
-0.0006927371141500771,-0.0017143826698884368,7.70521437516436e-05
-0.0007001975318416953,-0.0019020012114197016,9.254340693587437e-05
-0.0006686769193038344,-0.0019839738961309195,0.0001087320051738061
-0.0006272472674027085,-0.001985569018870592,0.00012196547322673723
-0.0006073106778785586,-0.0019539487548172474,0.00012962010805495083
-0.0006152737187221646,-0.0019487912068143487,0.0001618349488126114
-0.0006250734440982342,-0.0019826432690024376,0.00022486197121907026
-0.0006112707778811455,-0.0019811613019555807,0.00027623941423371434
-0.0006020041182637215,-0.0019471446285024285,0.00029501738026738167
-0.0006018785643391311,-0.0018980063032358885,0.00030974464607425034
-0.0005753528093919158,-0.0017119533149525523,0.0002866725262720138
-0.0005491084302775562,-0.001495706383138895,0.0002242386544821784
-0.0005336047033779323,-0.0013200314715504646,0.00018231722060590982
-0.0005148809286765754,-0.0010886278469115496,0.00016185728600248694
-0.0005135474493727088,-0.0008580082794651389,0.0001660876296227798
-0.0005204087356105447,-0.000687267689500004,0.00018624022777657956
-0.000500465976074338,-0.0005083730211481452,0.00017377798212692142
-0.0004684079613070935,-0.0002654248964972794,0.00010470901906955987
-0.0004620036925189197,-1.899012022477109e-05,3.295569331385195e-05
-0.00047599460231140256,0.000187087498488836,-3.084990794377518e-06
-0.0004921451909467578,0.00033772425376810133,-3.139874706903356e-06
-0.0005005632992833853,0.0004638530663214624,1.2532198525150307e-05
-0.0004889573319815099,0.0006055279518477619,1.161638465418946e-05
-0.00046849550562910736,0.0007139310473576188,-2.930618757090997e-05
-0.00047648377949371934,0.0006823629373684525,-6.987478991504759e-05
-0.0005090275662951171,0.0005351584404706955,-6.698760262224823e-05
-0.0005399768706411123,0.0003850013599731028,-2.7662088541546836e-05
-0.0005658896407112479,0.0002866174327209592,3.091307371505536e-05
-0.0005642474861815572,0.00027512767701409757,7.413249113596976e-05
-0.0005345771205611527,0.00028051549452356994,7.283308514161035e-05
-0.0005219380836933851,0.0001508382410975173,6.364865112118423e-05
-0.0005295777227729559,-2.204256588811404e-06,7.482877845177427e-05
-0.0005460648681037128,-0.00012736153439618647,9.166861127596349e-05
-0.0005637157591991127,-0.0003459024301264435,0.00013096610200591385
-0.0005788426497019827,-0.0006293933838605881,0.00018065802578348666
-0.0005992461228743196,-0.0009609498083591461,0.0002253199345432222
-0.0006043718894943595,-0.0011781570501625538,0.00025786765036173165
-0.0005729830008931458,-0.0011321220081299543,0.0002236788859590888
-0.0005408297292888165,-0.0010319113498553634,0.00014768941036891192
-0.0005299341282807291,-0.0010267759207636118,0.00010447273962199688
-0.000525433337315917,-0.001074010506272316,0.00010538965580053627
-0.0005205548368394375,-0.0011096589732915163,0.0001362057082587853
-0.0005064222496002913,-0.0010667582973837852,0.00017191350343637168
-0.0004734985122922808,-0.0009314415510743856,0.00017206312622874975
-0.00044306309428066015,-0.0007871730485931039,0.0001272630033781752
-0.00042966220644302666,-0.0006839254056103528,8.311041165143251e-05
-0.00041079739457927644,-0.0005278275348246098,5.5262768000829965e-05
-0.0003941467439290136,-0.0003306141879875213,4.406624429975636e-05
-0.00040038907900452614,-0.00015241486835293472,4.92446415591985e-05
-0.00040617730701342225,6.916696293046698e-05,3.4507644159020856e-05
-0.0003819088451564312,0.00034508961834944785,-4.0459282899973914e-05
-0.000345189415384084,0.0005796435289084911,-0.0001410327822668478
-0.00032119062962010503,0.0007743223686702549,-0.00021049291535746306
-0.00031814075191505253,0.0009095599525608122,-0.0002185619086958468
-0.00032476094202138484,0.0009843375300988555,-0.00017116087838076055
-0.00030210576369427145,0.0011536093661561608,-0.00013225991278886795
-0.00025183585239574313,0.0013962670927867293,-0.0001504567771917209
-0.0002282938949065283,0.0015260130167007446,-0.0001939444919116795
-0.00024325257982127368,0.0014605834148824215,-0.00019939389312639832
-0.0002581523731350899,0.0012773792259395123,-0.00016153759497683495
-0.0002561860019341111,0.0011347332037985325,-0.00011883248953381553
-0.0002449529420118779,0.001094750128686428,-0.00011322541831759736
-0.00024804871645756066,0.0009961992036551237,-0.00012668526323977858
-0.0002694522263482213,0.0007724160677753389,-0.00010734659736044705
-0.0002565598697401583,0.0006251102313399315,-0.00010371276584919542
-0.00022814531985204667,0.0005248713423497975,-0.000143756769830361
-0.00021960587764624506,0.0003575031296350062,-0.00016110755677800626
-0.00022967573022469878,0.0001327484642388299,-0.00012792577035725117
-0.0002610554511193186,-0.00019322703883517534,-3.595453017624095e-05
-0.0002784101525321603,-0.000466841651359573,7.947303674882278e-05
-0.00024514953838661313,-0.000496750813908875,0.00012280471855774522
-0.00019038993923459202,-0.000393626862205565,7.051029388094321e-05
-0.00015601042832713574,-0.00035739943268708885,1.1192597412446048e-05
-0.00013494500308297575,-0.0003911686653736979,7.964378710312303e-06
-0.00011419916700106114,-0.00043332920176908374,5.538602272281423e-05
-8.560814603697509e-05,-0.00042218013550154865,0.00011402603558963165
-3.9108708733692765e-05,-0.000312592601403594,0.00013529951684176922
1.528354550828226e-05,-0.00016880326438695192,0.00010309418576071039
5.039037569076754e-05,-9.010693611344323e-05,6.40103971818462e-05
7.498733612010255e-05,-1.6853991837706417e-05,5.11667130922433e-05
9.656289330450818e-05,0.00012324970157351345,5.121526191942394e-05
0.00010028397082351148,0.00024298689095303416,6.830732309026644e-05
0.00011655515118036419,0.00038593780482187867,8.267147495644167e-05
0.00016702321590855718,0.0006196610629558563,4.987810461898334e-05
0.0002089128247462213,0.0008494813810102642,-1.6821668396005407e-05
0.0002211562095908448,0.0010390197858214378,-7.443829963449389e-05
0.00021117411961313337,0.001147753675468266,-0.00010499363270355389
0.000199563117348589,0.0011847522109746933,-9.919535659719259e-05
0.00019627655274234712,0.0012863045558333397,-0.00010613085032673553
0.00017591181676834822,0.0013581704115495086,-0.000128405328723602
0.00014525829465128481,0.0013536199694499373,-0.00012121234613005072
0.00013927156396675855,0.0013777433196082711,-0.0001351464306935668
0.0001274782989639789,0.001322047202847898,-0.00017952709458768368
0.00010277860565111041,0.0011829157592728734,-0.0002053136850008741
8.401814557146281e-05,0.0010523031232878566,-0.0001968284195754677
4.8232330300379544e-05,0.0009010572684928775,-0.00015059288125485182
-8.830547812976874e-07,0.0006998138851486146,-8.012807666091248e-05
-1.9030545445275493e-05,0.0005396428168751299,-4.3243613617960364e-05
-8.476025868731085e-06,0.00043495409772731364,-7.007355452515185e-05
-1.13005062303273e-05,0.00029275708948262036,-0.00010812827531481162
-3.716145147336647e-05,0.00010745794861577451,-0.0001157924925792031
-8.245933713624254e-05,-0.0001145987116615288,-8.189619984477758e-05
-0.0001304239995079115,-0.00029777269810438156,-2.224065610789694e-05
-0.00015001646534074098,-0.00033454695949330926,1.287448230868904e-05
-0.00013716128887608647,-0.0002772106963675469,-1.5101751159818377e-05
-0.00013114073954056948,-0.00028169280267320573,-6.322334957076237e-05
-0.00014659449516329914,-0.00035702562308870256,-7.012917922111228e-05
-0.0001771848910721019,-0.00046920409658923745,-2.4352635591640137e-05
-0.00021562265465036035,-0.0005630641826428473,4.5832464820705354e-05
-0.0002266026713186875,-0.0005244491039775312,9.201225475408137e-05
-0.00019756524125114083,-0.00038888119161129,8.787835395196453e-05
-0.00017064528947230428,-0.00031058641616255045,6.714575283695012e-05
-0.00016485140076838434,-0.00028462320915423334,6.870037759654224e-05
-0.00017664693586993963,-0.00017115872469730675,7.302590529434383e-05
-0.00019202496332582086,-9.364941433886997e-06,7.076871406752616e-05
-0.00018946237105410546,0.00012672539742197841,5.385839904192835e-05
-0.00019187685393262655,0.00020093632338102907,2.9309361707419157e-05
-0.00021223045769147575,0.00025465720682404935,2.272894198540598e-05
-0.0002155682595912367,0.00045937043614685535,-1.88913236343069e-05
-0.00022558942146133631,0.0006291893660090864,-8.808951679384336e-05
-0.0002499071997590363,0.0006817201501689851,-0.00011410112347221002
-0.00027161947218701243,0.0007413342245854437,-0.0001080870206351392
-0.0003007256309501827,0.0007688251789659262,-8.6246982391458e-05
-0.000324134569382295,0.0007752272067591548,-5.297916504787281e-05
-0.00032040741643868387,0.0008035210194066167,-3.3363732654834166e-05
-0.0003031410160474479,0.0008155182586051524,-4.6751425543334335e-05
-0.00030418261303566396,0.0007533340831287205,-6.239271897356957e-05
-0.0003218321653548628,0.0006634203600697219,-6.322766421362758e-05
-0.0003524363273754716,0.0005406343261711299,-4.262669972376898e-05
-0.0003847198386210948,0.00038206216413527727,-1.8561689785201452e-06
-0.0003947026270907372,0.0002499392721801996,2.1887870389036834e-05
-0.00037742199492640793,0.0001876255264505744,-9.013652743306011e-06
-0.00036765786353498697,0.0001104993061744608,-5.889431486139074e-05
-0.0003806517051998526,-3.113197453785688e-05,-7.232498319353908e-05
-0.0004062883963342756,-0.00024614002904854715,-4.3031057430198416e-05
-0.0004315291589591652,-0.0006296402425505221,2.0695266357506625e-05
-0.000426433834945783,-0.0011970937484875321,6.600494816666469e-05
-0.00038789838436059654,-0.001402687863446772,5.251776383374818e-05
-0.0003556553565431386,-0.0012224558740854263,2.627191315696109e-05
-0.00034355022944509983,-0.0010645472211763263,2.5195711714331992e-05
-0.0003421317378524691,-0.0009732542675919831,4.6150304115144536e-05
-0.00034233444603160024,-0.0009101083851419389,8.801727381069213e-05
-0.0003333982895128429,-0.0007692814688198268,0.00010251905769109726
-0.00032983487471938133,-0.0007173353806138039,9.786056762095541e-05
-0.0003285160637460649,-0.0006951545365154743,0.00011649121734080836
-0.00029334655846469104,-0.0005612551467493176,0.00010553836182225496
-0.0002476101217325777,-0.00033601949689909816,4.751687083626166e-05
-0.00022065467783249915,-0.00017716236470732838,-2.7682808649842627e-06
-0.000211753707844764,-5.8125580835621804e-05,-2.1773483240394853e-05
-0.00021740517695434391,1.9048684407607652e-05,-4.307313702156534e-06
-0.00021329190349206328,0.00012547012011054903,3.5792934795608744e-05
-0.0001785278582246974,0.0003562389756552875,4.467761391424574e-05
-0.00013837871665600687,0.0006203155498951674,6.090170359129843e-07
-0.00012804231664631516,0.0007941662333905697,-4.593141420627944e-05
-0.00013807845243718475,0.0008731904672458768,-6.182619108585641e-05
-0.00015507105854339898,0.0008982353028841317,-3.5813274735119194e-05
-0.00016799701552372426,0.0008809996652416885,1.821375008148607e-05
-0.0001574957132106647,0.000921055325306952,4.824664938496426e-05
-0.00012589579273480922,0.0009527519578114152,2.1348916561692022e-05
-0.00011061706027248874,0.0008989748894236982,-1.878901275631506e-05
-0.0001218759425682947,0.0007860977202653885,-3.3223481295863166e-05
-0.00014431355521082878,0.00069063511909917,-2.052885429293383e-05
-0.00015810316835995764,0.0005686092190444469,2.5265428121201694e-05
-0.00014601532893721014,0.00048503195284865797,6.823212606832385e-05
-0.00011276322038611397,0.0004818506713490933,6.101193866925314e-05
-8.694153802935034e-05,0.0005301457713358104,2.192481952079106e-05
-8.196388807846233e-05,0.0005403286777436733,-1.9564706690289313e-06
-8.420282392762601e-05,0.0004436785529833287,8.116910066746641e-06
-8.155225805239752e-05,0.00023124525614548475,5.5068328947527334e-05
-6.584607035620138e-05,9.362396667711437e-05,7.323181489482522e-05
-7.163731061154976e-05,1.792712828319054e-05,5.562493606703356e-05
-9.207458788296208e-05,-6.493386899819598e-05,6.144530925666913e-05
-7.75405133026652e-05,-3.605292658903636e-05,4.954960604663938e-05
-6.59479628666304e-05,1.7081338228308596e-05,6.439484877773793e-06
-7.324291073018685e-05,2.317598591616843e-05,-1.975312079594005e-05
-7.810921670170501e-05,2.2091744540375657e-05,-1.850086118793115e-05
-8.358991908608004e-05,-3.100249841736513e-06,2.1227904653642327e-05
-8.582374721299857e-05,-3.162878056173213e-05,8.925399015424773e-05
-7.06772698322311e-05,1.8831951820175163e-05,0.00012650642020162195
-4.689795241574757e-05,0.00012496924318838865,0.00010049939737655222
-3.2836818718351424e-05,0.00023007389972917736,5.573291491600685e-05
-2.89374656858854e-05,0.0003054404223803431,3.600374475354329e-05
-4.0726550651015714e-05,0.0003309242310933769,6.179718184284866e-05
-6.154197762953117e-05,0.0003372590581420809,0.00012341928959358484
-6.411522190319374e-05,0.0004615858197212219,0.00015663432714063674
-4.773077671416104e-05,0.0006962010520510375,0.00011362594523234293
-4.2527670302661136e-05,0.0008866816060617566,5.008304651710205e-05
-5.027545921620913e-05,0.000984512153081596,2.590309850347694e-05
-7.107266719685867e-05,0.0010373424738645554,3.873264722642489e-05
-0.00010707377077778801,0.001048913225531578,8.739491750020534e-05
-0.0001279817515751347,0.001108490047045052,0.00013389096420723945
-0.00013055928866378963,0.0011597257107496262,0.00012987350055482239
-0.00015328259905800223,0.0010552109451964498,9.845451859291643e-05
-0.00019314451492391527,0.0008622378809377551,7.489581912523136e-05
-0.00023473675537388772,0.0006965395295992494,6.568585376953706e-05
-0.0002648595254868269,0.0005812403396703303,8.365360554307699e-05
-0.00027585416682995856,0.0004680184938479215,8.525091107003391e-05
-0.0002975907118525356,0.0002693797869142145,7.113260653568432e-05
-0.0003198038903065026,6.64734179736115e-05,8.417527715209872e-05
-0.00030119562870822847,2.6941584110318217e-06,6.20628270553425e-05
-0.00027928792405873537,-2.6458001229912043e-05,-4.098905719729373e-06
-0.0002923606080003083,-0.00013829683302901685,-5.205738125368953e-05
-0.00031571631552651525,-0.00027755124028772116,-6.771753396606073e-05
-0.0003271095047239214,-0.0004019945045001805,-4.909847120870836e-05
-0.00032473896862939,-0.00046900042798370123,-3.4009626688202843e-06
-0.00031010821112431586,-0.0004083600942976773,2.118660086125601e-05
-0.0003011233638972044,-0.00030676243477500975,-1.8093894595949678e-06
-0.00031068295356817544,-0.00029602728318423033,-2.6486288334126584e-05
-0.0003210490685887635,-0.0003427238261792809,-2.3694354240433313e-05
-0.0003341386909596622,-0.00044024758972227573,6.555604613822652e-06
-0.0003543873899616301,-0.0005845187697559595,5.3200757974991575e-05
-0.00035696584382094443,-0.0006472370587289333,8.284783689305186e-05
-0.0003332258202135563,-0.000581422180403024,6.406585453078151e-05
-0.00031588648562319577,-0.0004896283498965204,2.619904807943385e-05
-0.0003194453311152756,-0.0004434495058376342,3.556357569323154e-06
-0.000338596262736246,-0.00044326644274406135,2.0188401776977116e-06
-0.00035976702929474413,-0.0004147434956394136,3.789277980104089e-05
-0.00034833993413485587,-0.0002100136480294168,8.023265399970114e-05
-0.0003043159085791558,0.00010746273619588464,7.124728290364146e-05
-0.0002706692030187696,0.0003069150843657553,2.709192267502658e-05
-0.0002614570257719606,0.00035597110399976373,-1.467029733248637e-07
-0.0002635509299580008,0.0003312372718937695,1.3743289855483454e-05
-0.00027215093723498285,0.0003048582875635475,5.843039252795279e-05
-0.0002717898169066757,0.0003557626623660326,7.352590910159051e-05
-0.0002816962660290301,0.00032926947460509837,6.924325134605169e-05
-0.0003101020702160895,0.00019288402108941227,9.684666292741895e-05
-0.00031926989322528243,0.00010740887955762446,9.371844498673454e-05
-0.00032241351436823606,5.5059972510207444e-05,3.211157672922127e-05
-0.0003267030406277627,2.813469291140791e-05,-2.7926358598051593e-05
-0.00033031622297130525,-2.6600619094097055e-05,-5.967618926661089e-05
-0.0003479930164758116,-0.00018034616368822753,-5.403476461651735e-05
-0.0003637847548816353,-0.00035583486896939576,-2.328650589333847e-05
-0.0003475473204161972,-0.0004895938909612596,-1.831662666518241e-05
-0.00031823033350519836,-0.0006327858427539468,-6.135434523457661e-05
-0.00030956653063185513,-0.0008235495770350099,-0.00010149387526325881
-0.00032401009229943156,-0.0009638149058446288,-0.00010413072595838457
-0.00034999745548702776,-0.0010040050838142633,-6.716714415233582e-05
-0.0003648083074949682,-0.0009324414422735572,-1.6906184100662358e-05
-0.0003466156485956162,-0.000792692240793258,-4.213964075461263e-06
-0.00030705679091624916,-0.0007421643822453916,-4.7302899474743754e-05
-0.00028546657995320857,-0.0008225032943300903,-9.362296987092122e-05
