-0.00047736454871483147,-0.00035426943213678896,1.2611526472028345e-05
0.0007198960520327091,0.0003384984447620809,1.3249537005322054e-05
0.002096056705340743,0.00119798316154629,1.421138131263433e-05
0.0032830240670591593,0.001979629509150982,1.4829684914730024e-05
0.004651928786188364,0.0028341985307633877,1.5549323507002555e-05
0.006531305145472288,0.0038902796804904938,1.6421954569523223e-05
0.008276787586510181,0.004817957989871502,1.7123145880759694e-05
0.00924434419721365,0.005338637623935938,1.7117026800406165e-05
0.009294232353568077,0.0053863818757236,1.7699141608318314e-05
0.00879656057804823,0.005158532876521349,1.7593163647688925e-05
0.00823500007390976,0.004866328556090593,1.7088561435230076e-05
0.007589901331812143,0.004513282794505358,1.6914647858357057e-05
0.0064460295252501965,0.00391249917447567,1.6225727449636906e-05
0.004631431773304939,0.0028702428098767996,1.5645769963157363e-05
0.002714554313570261,0.00168282026425004,1.4502783415082376e-05
0.0009236108744516969,0.000562389031983912,1.3411932741291821e-05
-0.000964957638643682,-0.0005776348989456892,1.26787053886801e-05
-0.0029964859131723642,-0.0017427129205316305,1.163133856607601e-05
-0.004998394288122654,-0.0028639768715947866,1.0693738659028895e-05
-0.006450254935771227,-0.0037060356698930264,1.0067086805065628e-05
-0.007016331888735294,-0.004078606143593788,9.72764246398583e-06
-0.0069540441036224365,-0.004073549062013626,9.888107342703734e-06
-0.0067530060186982155,-0.003968034405261278,1.0067865332530346e-05
-0.006615402176976204,-0.0038700622972100973,1.0071626093122177e-05
-0.006473973859101534,-0.0037264563143253326,1.0189144632022362e-05
-0.00615669647231698,-0.0035073633771389723,1.0392002877779305e-05
-0.005655692890286446,-0.003259730525314808,1.0420628314022906e-05
-0.005113351158797741,-0.003005821257829666,1.0393562661192846e-05
-0.0045851608738303185,-0.0027267762925475836,1.0642028428264894e-05
-0.003987226635217667,-0.0023710180539637804,1.1390728104743175e-05
-0.003294923808425665,-0.0019006557995453477,1.1848217582155485e-05
-0.002545937430113554,-0.0014230103697627783,1.209996480611153e-05
-0.0017122953431680799,-0.0010130665032193065,1.2776591574947815e-05
-0.0008090821793302894,-0.0005908761522732675,1.3065311577520333e-05
0.00022574029571842402,-2.8327620384516194e-05,1.3113455679558683e-05
0.0017017466016113758,0.0008236973662860692,1.3937607945990749e-05
0.003016391769051552,0.0016004368662834167,1.4787026884732768e-05
0.004247376229614019,0.0023248468060046434,1.526774576632306e-05
0.005956033710390329,0.003356849541887641,1.630202132218983e-05
0.007562571205198765,0.004383114166557789,1.695733590167947e-05
0.008728567510843277,0.005087650381028652,1.7389347704011016e-05
0.009151484817266464,0.00524913938716054,1.7456768546253443e-05
0.008966604247689247,0.005060707684606314,1.723801869957242e-05
0.008479020558297634,0.0047592599876224995,1.711262848402839e-05
0.007834652438759804,0.0044560362584888935,1.7122145436587743e-05
0.0068443636409938335,0.004002004861831665,1.6762900486355647e-05
0.005281756166368723,0.003133523277938366,1.608489765203558e-05
0.0034015816636383533,0.001976523781195283,1.531462839921005e-05
0.0015552930999547243,0.0008277232991531491,1.4451954484684393e-05
-0.000291937671136111,-0.00027237553149461746,1.3433153071673587e-05
-0.002297930885106325,-0.0014098891988396645,1.204055570269702e-05
-0.004335942678153515,-0.0025260704569518566,1.1088434803241398e-05
-0.006027924828231335,-0.0034597471822053194,1.0206325896433555e-05
-0.006910671480000019,-0.003982488065958023,9.756548024597578e-06
-0.00703216390684247,-0.00408882787451148,9.71596637100447e-06
-0.006837341468781233,-0.00399212958291173,9.826886525843292e-06
-0.00668994290754199,-0.0038807063829153776,9.966801371774636e-06
-0.006585054565221071,-0.003740069456398487,9.85145197773818e-06
-0.006334876175969839,-0.003548033768311143,9.985883480112534e-06
-0.005822050850838423,-0.0033161866012960672,1.0173957889492158e-05
-0.0052706520073115826,-0.003103142138570547,1.0309719073120505e-05
-0.004782526753842831,-0.0028724391013383865,1.048610829457175e-05
-0.004213422071188688,-0.002524847397580743,1.1204413567611482e-05
-0.00345385423861444,-0.0020506700966507196,1.1862983228638768e-05
-0.002633770229294896,-0.001589249586686492,1.1647438441286795e-05
-0.0019065845990553498,-0.00117826322093606,1.2338684427959379e-05
-0.0012740117963403463,-0.0007484209490939975,1.2424889064277522e-05
-0.0003556633892003447,-0.00016656638763379306,1.3111039152136073e-05
0.0011090993648394942,0.000666439242195338,1.3966066035209224e-05
0.0025944102089852095,0.0014940535183995962,1.4270232895796653e-05
0.003877232549712062,0.0022390689700841904,1.5302897736546583e-05
0.005366225726902485,0.003173682140186429,1.5971430912031792e-05
0.006980712525546551,0.004191250074654818,1.667123069637455e-05
0.00833901483565569,0.004987269639968872,1.7125867088907398e-05
0.009067884646356106,0.005333862267434597,1.7281587133766152e-05
0.00907521415501833,0.00525690009817481,1.7599590137251653e-05
0.008653373457491398,0.004976785276085138,1.7523767382954247e-05
0.008036124520003796,0.0046558016911149025,1.699183849268593e-05
0.007190871052443981,0.0042545064352452755,1.668179356784094e-05
0.005875947419553995,0.0035417103208601475,1.602013253432233e-05
0.00408343318849802,0.0024646783713251352,1.4982942957431078e-05
0.0021805644501000643,0.0012975861318409443,1.40709089464508e-05
0.00035829495755024254,0.0002146824699593708,1.3053921975370031e-05
-0.001604744466021657,-0.0008961053099483252,1.2120267456339207e-05
-0.0036782396491616964,-0.002014413708820939,1.1072297638747841e-05
-0.005554230883717537,-0.0030545240733772516,9.993644198402762e-06
-0.006727507337927818,-0.0037947078235447407,9.798548489925452e-06
-0.00703955814242363,-0.0040462929755449295,9.662340744398534e-06
-0.0068911961279809475,-0.003968100529164076,9.482461791776586e-06
-0.006705171894282103,-0.0038493513129651546,9.907041203405242e-06
-0.0065667047165334225,-0.003747626906260848,1.0481870049261488e-05
-0.0063121444545686245,-0.003596123307943344,1.0070735697809141e-05
-0.005932685453444719,-0.003379663685336709,1.0854691026906949e-05
-0.005595998372882605,-0.0031410728115588427,1.0429409485368524e-05
-0.0051598199643194675,-0.0028733594808727503,1.0143467989109922e-05
-0.004532623570412397,-0.0025647846050560474,1.0571735401754268e-05
-0.0037336102686822414,-0.002157223643735051,1.0903003385465126e-05
-0.002873228630051017,-0.001700889552012086,1.1789722520916257e-05
-0.0021439995616674423,-0.0012816154630854726,1.1810179785243236e-05
-0.0015141129260882735,-0.0008841018425300717,1.238443837792147e-05
-0.0007019948679953814,-0.00041721973684616387,1.2673613127844874e-05
0.0005996061372570693,0.0002686711377464235,1.3329295143194031e-05
0.002114244271069765,0.0010833617998287082,1.3966133337817155e-05
0.0034517445601522923,0.0018567609367892146,1.5080033335834742e-05
0.004802055656909943,0.0027079456485807896,1.5540019376203418e-05
0.006378830876201391,0.003713723737746477,1.6253632566076703e-05
0.00790382269769907,0.004635002929717302,1.728739880491048e-05
0.008938784711062908,0.005188361741602421,1.7792110156733543e-05
0.009198262356221676,0.005274551454931498,1.7630376532906666e-05
0.008855997584760189,0.005080235656350851,1.714906466077082e-05
0.008275273256003857,0.004813809413462877,1.7040483726304956e-05
0.007525404449552298,0.004472536500543356,1.676649844739586e-05
0.006461971439421177,0.0038830607663840055,1.6331607184838504e-05
0.004828065168112516,0.0028600776568055153,1.5404371879412793e-05
0.002877041231840849,0.0016490673879161477,1.4078220374358352e-05
0.001108288881368935,0.0006071004318073392,1.2550788596854545e-05
-0.0008360613719560206,-0.0005195736885070801,1.2317096661718097e-05
-0.002880086889490485,-0.0016981895314529538,1.1395584806450643e-05
-0.004777208436280489,-0.002802065806463361,1.0334501894249115e-05
-0.006324324291199446,-0.003664239076897502,1.025209257932147e-05
-0.007082827389240265,-0.003995515406131744,9.96497692540288e-06
-0.007161745801568031,-0.004003655165433884,1.0383405424363445e-05
-0.006886322982609272,-0.003910650499165058,9.929724910762161e-06
-0.0066238464787602425,-0.0038203957956284285,9.919755029841326e-06
-0.006331789772957563,-0.0036668276879936457,1.0325215043849312e-05
-0.006032819859683514,-0.003451461438089609,1.0367682989453897e-05
-0.005729409400373697,-0.0032083767000585794,1.0448205102875363e-05
-0.005322660785168409,-0.002983524464070797,1.0363864930695854e-05
-0.004738081246614456,-0.002748092170804739,1.044951659423532e-05
-0.004000753164291382,-0.00241317437030375,1.0811366337293293e-05
-0.0031786481849849224,-0.0019614265765994787,1.144772340921918e-05
-0.002414245158433914,-0.001487777684815228,1.1509548130561598e-05
-0.0017801851499825716,-0.0010668253526091576,1.2120829524064902e-05
-0.0010400408646091819,-0.0006253081373870373,1.280825563299004e-05
9.50393732637167e-05,-1.763114232744556e-05,1.3315658179635648e-05
0.001614080392755568,0.0008196994895115495,1.3869369468011428e-05
0.0030209349934011698,0.0016215078067034483,1.4594033018511254e-05
0.004267889074981213,0.0023706965148448944,1.5176501619862393e-05
0.005757616367191076,0.003323943819850683,1.5926925698295236e-05
0.007423064671456814,0.004341848194599152,1.6743280866649002e-05
0.0087584862485528,0.005059890449047089,1.7217596905538812e-05
0.009302557446062565,0.005287714768201113,1.766934474289883e-05
0.009073011577129364,0.005116595886647701,1.757979771355167e-05
0.008528271690011024,0.004813648294657469,1.706999319139868e-05
0.007912933826446533,0.004495994653552771,1.715694452286698e-05
0.007111848797649145,0.004062947351485491,1.7096916053560562e-05
0.005552329588681459,0.0031716283410787582,1.6112382581923157e-05
0.0034236034844070673,0.0019763207528740168,1.491630700911628e-05
0.0014742572093382478,0.0008613770478405058,1.408433945471188e-05
-0.00031298567773774266,-0.00021732127061113715,1.301610427617561e-05
-0.002184661803767085,-0.0013572770403698087,1.1897794138349127e-05
-0.00409588310867548,-0.0025157539639621973,1.0752428352134302e-05
-0.0058066463097929955,-0.0034973868168890476,1.0016402484325226e-05
-0.006888438016176224,-0.004042844753712416,9.728813893161714e-06
-0.007174206431955099,-0.004148871172219515,9.730833880894352e-06
-0.006969735957682133,-0.004049153998494148,9.908049833029509e-06
-0.006687946151942015,-0.003908582031726837,1.0051910066977143e-05
-0.006435449235141277,-0.0037477498408406973,1.02340509329224e-05
-0.006161379627883434,-0.003541183890774846,1.0372160431870725e-05
-0.005869036074727774,-0.003316161222755909,1.0443403880344704e-05
-0.005487340502440929,-0.003099727211520076,1.0475165254320018e-05
-0.004944077227264643,-0.002885245019569993,1.0669182302081026e-05
-0.0042597949504852295,-0.0025962651707232,1.065663127519656e-05
-0.003478897036984563,-0.002173914574086666,1.1430644917709287e-05
-0.0026771824341267347,-0.001681263092905283,1.1897376680281013e-05
-0.00202528340741992,-0.0012301240349188447,1.240278834302444e-05
-0.001354932552203536,-0.0007949621067382395,1.286717269977089e-05
-0.00039137687417678535,-0.00029493539477698505,1.3306910659593996e-05
0.0010208701714873314,0.00046109891263768077,1.3246063645055983e-05
0.00245708622969687,0.0012945792404934764,1.3588726687885355e-05
0.0037374659441411495,0.002089924179017544,1.4769409062864725e-05
0.00529268104583025,0.0030767719727009535,1.560622695251368e-05
0.007076160982251167,0.004141958896070719,1.6679226973792538e-05
0.008505413308739662,0.004997003357857466,1.75714503711788e-05
0.009057286195456982,0.005395941901952028,1.786315260687843e-05
0.00894372072070837,0.0053686825558543205,1.7269148884224705e-05
0.008583327755331993,0.005112147890031338,1.711261757009197e-05
0.00812498852610588,0.004761619493365288,1.6919611880439334e-05
0.007450059987604618,0.0043027084320783615,1.6752735973568633e-05
0.006130227819085121,0.003557671559974551,1.605009674676694e-05
0.004147347994148731,0.0024913446977734566,1.4825829566689208e-05
0.0021394810173660517,0.0013586032437160611,1.3964615391159896e-05
0.0003393035149201751,0.00024202333588618785,1.2900794899906032e-05
-0.0014970706542953849,-0.0009125532233156264,1.2011083526886068e-05
-0.0034597953781485558,-0.0020860780496150255,1.0974437827826478e-05
-0.005351476836949587,-0.0031435650307685137,1.0186657164013013e-05
-0.006701178383082151,-0.003828578395769,9.607408173906151e-06
-0.007180573418736458,-0.004033869132399559,9.524706911179237e-06
-0.007006257306784391,-0.003945654723793268,9.610779670765623e-06
-0.00671254750341177,-0.0038175098598003387,9.610093002265785e-06
-0.006488432642072439,-0.003694377839565277,9.995650543714873e-06
-0.0062516783364117146,-0.0035201068967580795,1.0195441973337438e-05
-0.005978192202746868,-0.00328885018825531,1.0330457371310331e-05
-0.005628645420074463,-0.003080894937738776,1.0509398634894751e-05
-0.0050991252064704895,-0.0028756840620189905,1.069299196387874e-05
-0.0044585056602954865,-0.0026037360075861216,1.1102807548013516e-05
-0.0037472376134246588,-0.0022206229623407125,1.106322724808706e-05
-0.0028826582711189985,-0.0017408850835636258,1.1658633411570918e-05
-0.0021303428802639246,-0.0013074253220111132,1.2385521586111281e-05
-0.001464681001380086,-0.0009153987630270422,1.24208763736533e-05
-0.0007053559529595077,-0.0004717445990536362,1.268117739527952e-05
0.0002839541411958635,0.0001450464187655598,1.3512241821445059e-05
0.001617038156837225,0.0009173384169116616,1.3833558114129119e-05
0.003058863338083029,0.0016923361690714955,1.4593965715903323e-05
0.004754690919071436,0.002633302938193083,1.5672714653192088e-05
0.006598225329071283,0.0036974549293518066,1.6501862774020992e-05
0.008123437874019146,0.004634109325706959,1.7632633898756467e-05
0.008932271972298622,0.00519631989300251,1.7888398360810243e-05
0.009051045402884483,0.0053047481924295425,1.8033610103884712e-05
0.008785130456089973,0.005106358323246241,1.7727601516526192e-05
0.008338581770658493,0.0047883824445307255,1.7692038454697467e-05
0.007738142739981413,0.004401396494358778,1.7285055946558714e-05
0.006655711680650711,0.0037819533608853817,1.663644434302114e-05
0.004873816389590502,0.0028080297634005547,1.5329660527640954e-05
0.002809979720041156,0.0016580637311562896,1.4351956451719161e-05
0.0009903664467856288,0.0005753319128416479,1.3815040802001022e-05
-0.0007888586260378361,-0.000522151414770633,1.2798092029697727e-05
-0.002741260454058647,-0.0016921897185966372,1.1805229405581485e-05
-0.004766199272125959,-0.0028539549093693495,1.1311748494335916e-05
-0.006445886567234993,-0.0037491570692509413,9.960413990484085e-06
-0.0071978517808020115,-0.004112625494599342,9.495427548245061e-06
-0.007054132875055075,-0.004059002734720707,9.638107258069795e-06
-0.0067185587249696255,-0.003922558855265379,9.498127838014625e-06
-0.006525346077978611,-0.0038172255735844374,9.624409358366393e-06
-0.006313691847026348,-0.0036722312215715647,1.0072647455672268e-05
-0.005983909126371145,-0.0034569245763123035,1.0685031156754121e-05
-0.0055852183140814304,-0.0032502131070941687,1.017861723084934e-05
-0.005179408006370068,-0.0030412282794713974,1.058938869391568e-05
-0.004796267952769995,-0.00277150422334671,1.0753623428172432e-05
-0.004188959486782551,-0.0023934575729072094,1.1473897757241502e-05
-0.003287844592705369,-0.0019249098841100931,1.1540666491782758e-05
-0.002385922707617283,-0.001460272935219109,1.2260537914698943e-05
-0.0016057910397648811,-0.0010238781105726957,1.2806183804059401e-05
-0.0009071747190319002,-0.0005486125592142344,1.3119337381795049e-05
-3.157007085974328e-05,7.498371269321069e-05,1.3087567822367419e-05
0.0012410476338118315,0.000849212403409183,1.3758794011664577e-05
0.002685395535081625,0.0016129856230691075,1.496129607403418e-05
0.0042015197686851025,0.0024242273066192865,1.553865513415076e-05
0.005917362403124571,0.0034192253369838,1.6111960576381534e-05
0.007567271590232849,0.004417550750076771,1.6758533092797734e-05
0.008671041578054428,0.005103989038616419,1.762254942150321e-05
0.009055345319211483,0.005342687480151653,1.7727172235026956e-05
0.008924279361963272,0.005226281005889177,1.7856995327747427e-05
0.008526938036084175,0.0049426015466451645,1.7728301827446558e-05
0.007976184599101543,0.00461179343983531,1.762997271725908e-05
0.007114631589502096,0.004142820369452238,1.6675381630193442e-05
0.005567977204918861,0.0033121623564511538,1.6053532817750238e-05
0.0034849473740905523,0.002128235064446926,1.52926459122682e-05
0.0016141741070896387,0.00097474898211658,1.412997971783625e-05
-0.00010084164387080818,-0.00010100589861394837,1.3034786206844728e-05
-0.0019440781325101852,-0.001196027733385563,1.2206105566292536e-05
-0.004002216272056103,-0.0023874444887042046,1.1695512512233108e-05
-0.005840585567057133,-0.0034350052010267973,1.0964044122374617e-05
-0.006837259978055954,-0.003985678777098656,1.0328385542379692e-05
-0.007087144069373608,-0.004084831103682518,9.98236191662727e-06
-0.007007332984358072,-0.003963872790336609,9.850711649050936e-06
-0.0068670581094920635,-0.0038577867671847343,1.0200089491263498e-05
-0.006541506387293339,-0.0037152545992285013,1.0194789865636267e-05
-0.006141327321529388,-0.003534658346325159,1.0500870303076226e-05
-0.005701973102986813,-0.0033060836140066385,1.05414856079733e-05
-0.005343990866094828,-0.0030844269786030054,1.0991817362082656e-05
-0.004998175427317619,-0.0028544082306325436,1.1054374226660002e-05
-0.004461484029889107,-0.002554844133555889,1.1083774552389514e-05
-0.003626309335231781,-0.0021414814982563257,1.140654603659641e-05
-0.002703665057197213,-0.0016769772628322244,1.2176552445453126e-05
-0.0019046468660235405,-0.0012494103284552693,1.2780946235579904e-05
-0.0012031898368149996,-0.0008259007008746266,1.2850733583036344e-05
-0.00039782028761692345,-0.0002851818862836808,1.3240866792330053e-05
0.000837805331684649,0.0004934713360853493,1.3590774869953748e-05
0.002327233087271452,0.0013298826524987817,1.4312624443846289e-05
0.003722366876900196,0.002075377618893981,1.504618012404535e-05
0.005212669726461172,0.0029496464412659407,1.6237823729170486e-05
0.006932892370969057,0.004043823108077049,1.6812129615573213e-05
0.008296526968479156,0.004964010789990425,1.718275416351389e-05
0.008989806286990643,0.005428231321275234,1.7453754480811767e-05
0.009037009440362453,0.005388468038290739,1.776796307240147e-05
0.008700230158865452,0.005091590341180563,1.7484398995293304e-05
0.008212605491280556,0.004770915023982525,1.7435741028748453e-05
0.007554101757705212,0.004402993246912956,1.6896578017622232e-05
0.0063110338523983955,0.003707519033923745,1.6416477592429146e-05
0.0043509346432983875,0.002562787849456072,1.542272548249457e-05
0.0022981935180723667,0.0013893888099119067,1.442985831090482e-05
0.00035888474667444825,0.0003358132380526513,1.3530428986996412e-05
-0.001593213528394699,-0.000791660975664854,1.2221443284943234e-05
-0.0034457682631909847,-0.0019601541571319103,1.1478100532258395e-05
-0.005174426361918449,-0.003048018319532275,1.0329706128686666e-05
-0.006424698978662491,-0.0037907795049250126,1.010305368254194e-05
-0.007001510355621576,-0.004056755919009447,9.859567398962099e-06
-0.007097445894032717,-0.004018684849143028,9.733924343890976e-06
-0.006955274846404791,-0.003917468246072531,9.91296474239789e-06
-0.006660040933638811,-0.0037996936589479446,1.0222710443485994e-05
-0.006269244477152824,-0.003617699956521392,1.0271251085214317e-05
-0.005856083240360022,-0.003389304270967841,1.0056733117380645e-05
-0.005490188952535391,-0.0031475049909204245,1.021469051920576e-05
-0.0051712766289711,-0.0029003331437706947,1.0380776984675322e-05
-0.004696242045611143,-0.002614701399579644,1.0857096640393138e-05
-0.003933155443519354,-0.002263466827571392,1.1664302292047068e-05
-0.0029894988983869553,-0.0018209143308922648,1.199421240016818e-05
-0.0021507267374545336,-0.0013608252629637718,1.238675213244278e-05
-0.0014491535257548094,-0.0009221715154126287,1.2887511729786638e-05
-0.000757905188947916,-0.00046464818296954036,1.3113917702867184e-05
0.0003293092886451632,0.00018038044800050557,1.385484756610822e-05
0.0019084680825471878,0.0010369752999395132,1.4362080037244596e-05
0.003333720378577709,0.001813545124605298,1.4515109796775505e-05
0.004591652192175388,0.0025570583529770374,1.4682833352708258e-05
0.006377427838742733,0.003629283979535103,1.5702107702963986e-05
0.008017673157155514,0.004620279651135206,1.667673495830968e-05
0.008968883194029331,0.005175959784537554,1.7632442904869094e-05
0.009147762320935726,0.00527551956474781,1.7858472347143106e-05
0.008660910651087761,0.005038842558860779,1.74866545421537e-05
0.008138380944728851,0.004745774436742067,1.724984213069547e-05
0.007625956553965807,0.004386868793517351,1.706925468170084e-05
0.0067580584436655045,0.0038063894025981426,1.6316213077516295e-05
0.005092224571853876,0.0028100861236453056,1.526076448499225e-05
0.003032200038433075,0.0016659931279718876,1.440768210159149e-05
0.0010083348024636507,0.0005925652221776545,1.3300672435434535e-05
-0.000919732206966728,-0.0004874388105235994,1.2479606084525585e-05
-0.0027706134133040905,-0.0016254301881417632,1.135710954258684e-05
-0.00454530818387866,-0.0027282556984573603,1.0835534340003505e-05
-0.006007420364767313,-0.0036033494397997856,1.009204970614519e-05
-0.00688124867156148,-0.00406640162691474,9.772771591087803e-06
-0.007143124006688595,-0.0041232178919017315,9.708952347864397e-06
-0.007049479056149721,-0.004018675535917282,9.751744983077515e-06
-0.006762636359781027,-0.003906585276126862,9.727266842673998e-06
-0.006402031052857637,-0.003771556308493018,9.821052117331419e-06
-0.006002930458635092,-0.003564547747373581,1.0128809663001448e-05
-0.005632038228213787,-0.003334426786750555,1.038960454025073e-05
-0.005318714305758476,-0.0031031512189656496,1.0533315617067274e-05
-0.004914847668260336,-0.0028350166976451874,1.0991384442604613e-05
-0.004210197366774082,-0.002470411593094468,1.122053618018981e-05
-0.0032755134161561728,-0.0020054178312420845,1.1622612873907201e-05
-0.002413728041574359,-0.0015470694052055478,1.2172028618806507e-05
-0.001671541715040803,-0.0011025533312931657,1.229690678883344e-05
-0.0009606602252461016,-0.0006392713403329253,1.25265523820417e-05
1.1099020412075333e-05,-4.464087032829411e-05,1.3395396308624186e-05
0.0014442061074078083,0.000815318722743541,1.4485444808087777e-05
0.002698262920603156,0.0016087956028059125,1.4322816241474357e-05
0.003934755455702543,0.0023513082414865494,1.5226254618028179e-05
0.00567089905962348,0.0033042654395103455,1.5893421732471325e-05
0.0074816979467868805,0.004291540943086147,1.6783502360340208e-05
0.00878051109611988,0.005016826558858156,1.7356429452775046e-05
0.009178319945931435,0.005279642529785633,1.7818689229898155e-05
0.008861926384270191,0.0051642186008393764,1.7631478840485215e-05
0.008338804356753826,0.004882366396486759,1.7052421753760427e-05
0.007854451425373554,0.004534489940851927,1.6863403288880363e-05
0.007134521845728159,0.004041376058012247,1.624218020879198e-05
0.005758411716669798,0.003222469938918948,1.6028709069360048e-05
0.0037730655167251825,0.0021087012719362974,1.5481076843570918e-05
0.001688533229753375,0.0009619975462555885,1.4691904652863741e-05
-0.00025560150970704854,-0.00015426483878400177,1.3340491932467557e-05
-0.002114386996254325,-0.0012922690948471427,1.1905440260306932e-05
-0.003952047787606716,-0.0024076374247670174,1.0383920198364649e-05
-0.0056228917092084885,-0.003366416320204735,9.889653483696748e-06
-0.006742827594280243,-0.003965829964727163,9.606293133401778e-06
-0.0071435896679759026,-0.004109595436602831,9.89248110272456e-06
-0.007075355388224125,-0.004004547372460365,9.873862836684566e-06
-0.006799864582717419,-0.0038809108082205057,9.650253559811972e-06
-0.00647390354424715,-0.00375774665735662,1.0150967682420742e-05
-0.006126588210463524,-0.0035869732964783907,1.0317650776414666e-05
-0.005716688930988312,-0.0033653867430984974,1.0191782166657504e-05
-0.005337548907846212,-0.0031407466158270836,1.0248988473904319e-05
-0.004922289401292801,-0.002911594696342945,1.0788840882014483e-05
-0.004392605274915695,-0.0025925100781023502,1.0939588719338644e-05
-0.003733886405825615,-0.0021468468476086855,1.1151771104778163e-05
-0.0029029957950115204,-0.0016746293986216187,1.1724807336577214e-05
-0.0020359663758426905,-0.0012590177357196808,1.2644202797673643e-05
-0.0012089188676327467,-0.0008233264670707285,1.2925557712151203e-05
-0.0003184732049703598,-0.00028048738022334874,1.3542007764044683e-05
0.0008479998214170337,0.000473216874524951,1.4337942957354244e-05
0.002108560409396887,0.0012886045733466744,1.4614471183449496e-05
0.003417286789044738,0.0020585402380675077,1.4756319615116809e-05
0.005088334437459707,0.0029763535130769014,1.5440966308233328e-05
0.006937462370842695,0.004013939760625362,1.6372794561902992e-05
0.008442427963018417,0.004888624884188175,1.7380069039063528e-05
0.009137346409261227,0.005331255961209536,1.7933003618963994e-05
0.009019394405186176,0.005335203837603331,1.79820490302518e-05
0.00852789543569088,0.0050879535265266895,1.7623871826799586e-05
0.008063510060310364,0.004768442828208208,1.7105987353716046e-05
0.0074920449405908585,0.004374341573566198,1.6969250282272696e-05
0.006384137086570263,0.0037317974492907524,1.6322675946867093e-05
0.004512563813477755,0.0026958431117236614,1.5559147868771106e-05
0.002361155580729246,0.0015213043661788106,1.4301193914434407e-05
0.000423627148848027,0.00040547281969338655,1.3071820831100922e-05
-0.0014059965033084154,-0.0007649216568097472,1.2304937627050094e-05
-0.0032707047648727894,-0.0019682294223457575,1.1140396964037791e-05
-0.0050827753730118275,-0.003076598048210144,9.775390026334208e-06
-0.006506732665002346,-0.0038998830132186413,9.7021820693044e-06
-0.007036170456558466,-0.004153890535235405,1.0038884283858351e-05
-0.006940675433725119,-0.004059312399476767,9.82069377641892e-06
-0.0068144043907523155,-0.003972352482378483,9.687343663244974e-06
-0.006711789406836033,-0.0038674590177834034,9.775169928616378e-06
-0.006466016639024019,-0.0037139221094548702,9.234911885869224e-06
-0.005966366268694401,-0.0034704392310231924,9.933658475347329e-06
-0.0054693566635251045,-0.003226224798709154,1.0512977496546227e-05
-0.004997653886675835,-0.0029637550469487906,1.0518415365368128e-05
-0.004550906829535961,-0.0026526169385761023,1.0641378139553126e-05
-0.003979151602834463,-0.0022381863091140985,1.0862756425922271e-05
-0.003194162156432867,-0.0017513881903141737,1.1678102055157069e-05
-0.0023069235030561686,-0.0012871637009084225,1.1837774763989728e-05
-0.001461996347643435,-0.0008551627979613841,1.2588902791321743e-05
-0.0006026182672940195,-0.0003769546456169337,1.29045747598866e-05
0.0005112393409945071,0.00030363601399585605,1.3181826034269761e-05
0.001822384656406939,0.0011266658548265696,1.4057369298825506e-05
0.0030825852882117033,0.0018692780286073685,1.4884941265336238e-05
0.004465826787054539,0.002599386963993311,1.528117536508944e-05
0.006233956664800644,0.00355377490632236,1.6089881683001295e-05
0.007931536994874477,0.004531313199549913,1.7061802282114513e-05
0.00896939542144537,0.0051920004189014435,1.7293763448833488e-05
0.009084368124604225,0.005365751218050718,1.770079143170733e-05
0.008659804239869118,0.005172268021851778,1.782210892997682e-05
0.008220839314162731,0.004857067484408617,1.740341031108983e-05
0.007767834700644016,0.00450594536960125,1.7128799299825914e-05
0.006986450869590044,0.004010805394500494,1.6495692761964165e-05
0.005263765808194876,0.0030148252844810486,1.582982440595515e-05
0.0030884770676493645,0.001792905037291348,1.490941212978214e-05
0.0011996373068541288,0.0007339998264797032,1.3887455679650884e-05
-0.00075049779843539,-0.0003880297881551087,1.2971133401151747e-05
-0.0027458197437226772,-0.001532208640128374,1.1947823622904252e-05
-0.004637593869119883,-0.002643012907356024,1.126446295529604e-05
-0.006057489663362503,-0.0035448658745735884,1.0147037755814381e-05
-0.006826853379607201,-0.004037367645651102,9.684782526164781e-06
-0.006980268284678459,-0.00410944689065218,9.774885256774724e-06
-0.006911927834153175,-0.0039979941211640835,9.70499877439579e-06
-0.006832758896052837,-0.003868713276460767,9.757483894645702e-06
-0.006602727808058262,-0.003721567103639245,9.889992725220509e-06
-0.006156583782285452,-0.003531849244609475,1.0085236681334209e-05
-0.005635274574160576,-0.003284191247075796,1.0211234439339023e-05
-0.005178622901439667,-0.0030084028840065002,1.0408512025605887e-05
-0.004746587947010994,-0.0026950950268656015,1.0663718967407476e-05
-0.004256658721715212,-0.0023296510335057974,1.1055903996748384e-05
-0.003515454940497875,-0.0018701180815696716,1.131277622334892e-05
-0.0026104107964783907,-0.0014017614303156734,1.1792970326496288e-05
-0.0017279190942645073,-0.0009793934877961874,1.2283498108445201e-05
-0.0009258324862457812,-0.0005642299074679613,1.2761293874063995e-05
4.2293675505789e-05,3.646629465947626e-06,1.3318930541572627e-05
0.0013180618407204747,0.0008076011436060071,1.4036129869055003e-05
0.0026596446987241507,0.0016096028266474605,1.4544480109179858e-05
0.003950745798647404,0.0023003125097602606,1.4743613064638339e-05
0.005635543260723352,0.003241596044972539,1.5503999748034403e-05
0.007419267203658819,0.004287548363208771,1.6327874618582428e-05
0.008816439658403397,0.005092029459774494,1.7123416910180822e-05
0.009290396235883236,0.005363773088902235,1.739873732731212e-05
0.00899576023221016,0.005194574594497681,1.748866452544462e-05
0.008478476665914059,0.004936563316732645,1.7178224879899062e-05
0.007795782294124365,0.004627109970897436,1.7104039216064848e-05
0.00703747384250164,0.004185938276350498,1.667130163696129e-05
0.005709368269890547,0.003306030761450529,1.593347951711621e-05
0.003835698589682579,0.002115077804774046,1.4946548617444932e-05
0.001916918670758605,0.0009651731234043837,1.3535563994082622e-05
-2.081244019791484e-05,-0.00012029811477987096,1.2730202797683887e-05
-0.002079418394714594,-0.0012367026647552848,1.2017207154713105e-05
-0.0040633403696119785,-0.002359891077503562,1.143006647907896e-05
-0.005688836798071861,-0.003348401514813304,1.0571468919806648e-05
-0.006672876887023449,-0.003952234983444214,1.0091255717270542e-05
-0.006972626317292452,-0.004093936178833246,9.914829206536524e-06
-0.0069265165366232395,-0.003974716179072857,9.883782695396803e-06
-0.0068553718738257885,-0.0038312971591949463,9.927241080731619e-06
-0.006699965335428715,-0.003713615471497178,9.770124052010942e-06
-0.006305759306997061,-0.0035489993169903755,9.705715456220787e-06
-0.005788424052298069,-0.0033263452351093292,9.930018677550834e-06
-0.005317326169461012,-0.0030816637445241213,1.0342598216084298e-05
-0.004906284157186747,-0.0028277854435145855,1.0460040357429534e-05
-0.004474330693483353,-0.0025206496939063072,1.057566078088712e-05
-0.0038153394125401974,-0.002099183853715658,1.165654157375684e-05
-0.0028670139145106077,-0.0016023931093513966,1.1862773135362659e-05
-0.0019576011691242456,-0.0011769008124247193,1.1954408364545088e-05
-0.0012107157381251454,-0.0008130082860589027,1.1885270396305714e-05
-0.0003884002799168229,-0.00033653611899353564,1.2782782505382784e-05
0.0008340676431544125,0.0004312795354053378,1.3906125786888879e-05
0.002250218763947487,0.0012855868553742766,1.4685740097775124e-05
0.003492139745503664,0.002020134823396802,1.5868963600951247e-05
0.0049153659492731094,0.0028957000467926264,1.612426422070712e-05
0.00668880483135581,0.003925028722733259,1.708387389953714e-05
0.008287273347377777,0.0047927373088896275,1.7486820070189424e-05
0.009148221462965012,0.005230131093412638,1.7890190065372735e-05
0.009174754843115807,0.005189681425690651,1.7722390111885034e-05
0.008689222857356071,0.00491953082382679,1.764547050697729e-05
0.008033770136535168,0.004618069622665644,1.7240678062080406e-05
0.0073382495902478695,0.004266748204827309,1.712760240479838e-05
0.006263974122703075,0.003616570495069027,1.6490828784299083e-05
0.004555199295282364,0.0025683126877993345,1.5305418855859898e-05
0.002592680975794792,0.001391780562698841,1.4672633369627874e-05
0.000653797120321542,0.00027814076747745275,1.4011579878570046e-05
-0.001360394642688334,-0.0008340051281265914,1.2914363651361782e-05
-0.0033968547359108925,-0.001970721408724785,1.152613913291134e-05
-0.005188593175262213,-0.0030301709193736315,1.083883034880273e-05
-0.006446315906941891,-0.003800847800448537,9.908458196150605e-06
-0.006955928169190884,-0.004095780663192272,9.666703590482939e-06
-0.006944723427295685,-0.004039830062538385,1.0223810022580437e-05
-0.006870827171951532,-0.0038921020459383726,1.0258809197694063e-05
-0.006767153274267912,-0.0037430087104439735,1.021449043037137e-05
-0.006408753804862499,-0.003561763558536768,1.0266692697769031e-05
-0.0058870697394013405,-0.003346903482452035,1.0229353392787743e-05
-0.005430065561085939,-0.0031336196698248386,1.0554764230619185e-05
-0.005008106119930744,-0.00292217917740345,1.0285346434102394e-05
-0.004552509170025587,-0.002679038792848587,1.1333019756420981e-05
-0.003911852836608887,-0.002326843561604619,1.1718212590494659e-05
-0.0031002031173557043,-0.0018464663298800588,1.174411954707466e-05
-0.002403448335826397,-0.0013816404389217496,1.2250549843884073e-05
-0.0016799996374174953,-0.0009635930182412267,1.2692842574324459e-05
-0.0008039840613491833,-0.0005327645340003073,1.3203774869907647e-05
0.0003747643204405904,9.37517688726075e-05,1.3461486560117919e-05
0.0017852046294137836,0.0008843005052767694,1.4014724001754075e-05
0.0030543773900717497,0.0016223606653511524,1.4677215403935406e-05
0.00439252657815814,0.0024453073274344206,1.5291612726286985e-05
0.006076039746403694,0.0034736336674541235,1.6490061170770787e-05
0.007802553940564394,0.004475686699151993,1.7282711269217543e-05
0.008955891244113445,0.005112693179398775,1.7594285964150913e-05
0.009260863997042179,0.005267498083412647,1.7809081327868626e-05
0.008898692205548286,0.005095477681607008,1.7768385077943094e-05
0.008257569745182991,0.004822578281164169,1.7586695321369916e-05
0.007594224531203508,0.004505927674472332,1.7006113921524957e-05
0.006748685147613287,0.003992323763668537,1.6718402548576705e-05
0.00527693796902895,0.0030809694435447454,1.609632818144746e-05
0.0032917556818574667,0.0018978677690029144,1.4987409485911485e-05
0.0013184744166210294,0.0007616729126311839,1.3889994988858234e-05
-0.000665701343677938,-0.0003312697808723897,1.3090781976643484e-05
-0.002705453196540475,-0.0014688592636957765,1.222237460751785e-05
-0.00457994407042861,-0.0025964088272303343,1.1149285455758218e-05
-0.006097202189266682,-0.0035352283157408237,1.002278622763697e-05
-0.006889018230140209,-0.003999378066509962,9.799256986298133e-06
-0.006953512784093618,-0.004004856571555138,9.68238600762561e-06
-0.006807892117649317,-0.00386833562515676,1.0054263839265332e-05
-0.006684569641947746,-0.0037618963979184628,9.809924449655227e-06
-0.006484567653387785,-0.0036080884747207165,9.948677870852407e-06
-0.0062137171626091,-0.0033923217561095953,1.0385112545918673e-05
-0.0058119045570492744,-0.0031671153847128153,1.0373128134233411e-05
-0.005288790911436081,-0.002959538483992219,1.0660747648216784e-05
-0.0047323135659098625,-0.0027354767080396414,1.0947939699690323e-05
-0.004095923155546188,-0.0024269442074000835,1.1508467650855891e-05
-0.003369445214048028,-0.002000546082854271,1.1945533515245188e-05
-0.0026618519332259893,-0.0015331889735534787,1.2275805602257606e-05
-0.0019412117544561625,-0.0010963917011395097,1.2417973266565241e-05
-0.0010962379164993763,-0.0006604077643714845,1.2744945706799626e-05
-2.4771850803517736e-05,-9.57720258156769e-05,1.3683388715435285e-05
0.0013240581611171365,0.0006662323139607906,1.4710005416418426e-05
0.002643811982125044,0.001454167882911861,1.5094892660272308e-05
0.0038796833250671625,0.0022397267166525126,1.535260525997728e-05
0.005427031312137842,0.003189514158293605,1.6060195775935426e-05
0.007252826355397701,0.004213025327771902,1.705947761365678e-05
0.008688069880008698,0.004974525887519121,1.7745111108524725e-05
0.009278746321797371,0.005297771655023098,1.7833703168435022e-05
0.009070283733308315,0.005208783783018589,1.7819103959482163e-05
0.008448119275271893,0.004925878718495369,1.8024762539425865e-05
0.00780851673334837,0.004605621565133333,1.7431873857276514e-05
0.0071752602234482765,0.004208908416330814,1.6708580005797558e-05
0.0059780762530863285,0.0034724706783890724,1.579145282448735e-05
0.004081287886947393,0.002359103411436081,1.45194680953864e-05
0.002042657695710659,0.0011811123695224524,1.3788101568934508e-05
0.0001255322276847437,8.105442248051986e-05,1.2913750651932787e-05
-0.0018207139801234007,-0.0010510205756872892,1.2394165423756931e-05
-0.0038625237066298723,-0.0022236271761357784,1.1446345524745993e-05
-0.005726933013647795,-0.0032504478003829718,1.0426389962958638e-05
-0.006884245667606592,-0.00391738535836339,1.001712735160254e-05
-0.007092163898050785,-0.004090423695743084,9.624176527722739e-06
-0.006896638777107,-0.004017930943518877,9.823529580899049e-06
-0.006682933773845434,-0.0039028923492878675,9.869356290437281e-06
-0.006537448614835739,-0.0037798830308020115,1.0135483535123058e-05
-0.006341747008264065,-0.003602774580940604,1.0205506441707257e-05
-0.005977208726108074,-0.0033810390159487724,1.0614989150781184e-05
-0.005464151967316866,-0.003147741314023733,1.0564460353634786e-05
-0.004911693744361401,-0.002888051327317953,1.085836447600741e-05
-0.004327724687755108,-0.002560604130849242,1.1273915333731566e-05
-0.003650747239589691,-0.0021216152235865593,1.1332025678711943e-05
-0.0029396878089755774,-0.0016349207144230604,1.1857555364258587e-05
-0.0022077481262385845,-0.0011789932614192367,1.2180203157186043e-05
-0.0013898625038564205,-0.0007653955835849047,1.2517443792603444e-05
-0.0004075399483554065,-0.00028847859357483685,1.2901205991511233e-05
0.0008353737066499889,0.0003886680933646858,1.363468800263945e-05
0.0022290912456810474,0.0012090401723980904,1.4431953786697704e-05
0.0034048291854560375,0.0019439520547166467,1.4963304238335695e-05
0.004769978113472462,0.002780218841508031,1.5692545275669545e-05
0.006644252222031355,0.0038340329192578793,1.6285659512504935e-05
0.008351213298738003,0.0047462633810937405,1.695952050795313e-05
0.009257863275706768,0.005220573861151934,1.7569705960340798e-05
0.009263153187930584,0.005227303598076105,1.7935733922058716e-05
0.008745663799345493,0.004978005308657885,1.801121652533766e-05
0.008181818760931492,0.004690106958150864,1.709162097540684e-05
0.0075302692130208015,0.00434604799374938,1.6677333405823447e-05
0.006328143645077944,0.0036945866886526346,1.633766805753112e-05
0.004469115287065506,0.00258997012861073,1.5364703358500265e-05
0.0025567011907696724,0.0013916228199377656,1.413965492247371e-05
0.0007663065334782004,0.00028926515369676054,1.3349449545785319e-05
-0.0011277612065896392,-0.0008269104873761535,1.241147856489988e-05
-0.0031465727370232344,-0.0019570549484342337,1.1362886652932502e-05
-0.005112180020660162,-0.0030197082087397575,9.917837815009989e-06
-0.0065108900889754295,-0.003802341176196933,9.638003575673793e-06
-0.007036149967461824,-0.004144955892115831,9.512024007563014e-06
-0.006961558014154434,-0.0041138785891234875,9.756658982951194e-06
-0.006759702228009701,-0.003952301573008299,9.875180694507435e-06
-0.006617019418627024,-0.0037979772314429283,9.917177521856502e-06
-0.00646853307262063,-0.003652623388916254,9.901938028633595e-06
-0.006149740889668465,-0.0034691730979830027,1.0105170076712966e-05
-0.005639680661261082,-0.0032536215148866177,1.046928264258895e-05
-0.005080405157059431,-0.003007115563377738,1.0338393622078001e-05
-0.004533772356808186,-0.00271346396766603,1.0701546671043616e-05
-0.003919939510524273,-0.002335262717679143,1.1328780601616018e-05
-0.003223218722268939,-0.0018618199974298477,1.1964082659687847e-05
-0.002484517637640238,-0.0013964315876364708,1.2299191439524293e-05
-0.0016573189059272408,-0.0009909220971167088,1.2867099940194748e-05
-0.0007563050603494048,-0.0005605769110843539,1.2679824067163281e-05
0.0002983581798616797,2.801241680572275e-05,1.313581014983356e-05
0.0017725663492456079,0.0008980767452158034,1.4203103091858793e-05
0.0030660636257380247,0.00168326823040843,1.4907446711731609e-05
0.004345511086285114,0.002469157101586461,1.544353654026054e-05
0.006110692862421274,0.003548824694007635,1.6492029317305423e-05
0.007694230414927006,0.004534020088613033,1.6836465874803253e-05
0.008795642293989658,0.005175399594008923,1.748674549162388e-05
0.009149005636572838,0.0053138709627091885,1.738079845381435e-05
0.008921310305595398,0.005134886130690575,1.750727096805349e-05
0.008424126543104649,0.004830399062484503,1.7427046259399503e-05
0.007773199118673801,0.004480031784623861,1.7275267964578234e-05
0.006746739149093628,0.00393961975350976,1.6392139514209703e-05
0.005134966224431992,0.003021532204002142,1.5395509763038717e-05
0.003249621484428644,0.0018908040365204215,1.4827509403403383e-05
0.0014173535164445639,0.0007943726377561688,1.3789443073619623e-05
-0.00043166649993509054,-0.00029432273004204035,1.2878808774985373e-05
-0.002454398199915886,-0.0014472869224846363,1.1982893738604616e-05
-0.00450468622148037,-0.0025538764894008636,1.1029665984096937e-05
-0.00617023091763258,-0.0034470772370696068,9.824761946219951e-06
-0.006965452805161476,-0.00393002899363637,9.563015737512615e-06
-0.006998205557465553,-0.004017368890345097,9.821233106777072e-06
-0.006781762931495905,-0.00390590145252645,1.0441039194120094e-05
-0.00664927763864398,-0.003757273079827428,1.0372004908276722e-05
-0.006545900367200375,-0.003568947082385421,1.0440646292408928e-05
-0.006284270901232958,-0.003355886787176132,1.0374089470133185e-05
-0.005767872091382742,-0.003135420149192214,1.0437146556796506e-05
-0.005215926095843315,-0.00293549126945436,1.037874426401686e-05
-0.004725974518805742,-0.0027150423265993595,1.0431580449221656e-05
-0.004141046665608883,-0.0023998329415917397,1.0384995221102145e-05
-0.0033851475454866886,-0.0019513570005074143,1.1530875781318173e-05
-0.002594800665974617,-0.0014899760717526078,1.2683463864959776e-05
-0.0018642604118213058,-0.0010635880753397942,1.2489643268054351e-05
-0.0012106336653232574,-0.0006363782449625432,1.239954144693911e-05
-0.0002846808056347072,-9.038055577548221e-05,1.2906202755402774e-05
0.0011436654021963477,0.0006711469031870365,1.3574241165770218e-05
0.002603459171950817,0.0014451522147282958,1.5051413356559351e-05
0.003957870416343212,0.002203512703999877,1.5876537872827612e-05
0.0055350190959870815,0.003153835656121373,1.6077370673883706e-05
0.007156161591410637,0.004149692598730326,1.6902802599361166e-05
0.008454622700810432,0.0049064201302826405,1.7060627214959823e-05
0.009111890569329262,0.0052332328632473946,1.716922633931972e-05
0.00907658226788044,0.005167046096175909,1.7379801647621207e-05
0.008637690916657448,0.004908998962491751,1.7679472875897773e-05
0.008008817210793495,0.004591334145516157,1.7188172932947055e-05
0.007134687155485153,0.004162508994340897,1.669259108894039e-05
0.005766761489212513,0.0034007455687969923,1.6018258975236677e-05
0.003945359028875828,0.002287703100591898,1.5073385839059483e-05
0.002050331560894847,0.0011218276340514421,1.448383500246564e-05
0.00022776523837819695,3.2721509342081845e-05,1.3629851309815422e-05
-0.0017484122654423118,-0.001117207109928131,1.2568261809065007e-05
-0.003841828089207411,-0.0022774040699005127,1.1616044503170997e-05
-0.0057226805947721004,-0.0033261324279010296,1.0385761015641037e-05
-0.0068261404521763325,-0.0040219915099442005,9.747181138664018e-06
-0.007033314555883408,-0.00420865323394537,9.728568329592235e-06
-0.006843556649982929,-0.004083307459950447,9.737595064507332e-06
-0.006670842878520489,-0.003919857554137707,1.0310745892638806e-05
-0.006523861549794674,-0.0037585864774882793,1.0208272215095349e-05
-0.006243251264095306,-0.003575750160962343,1.023668210109463e-05
-0.005865223240107298,-0.0033676414750516415,1.052114566846285e-05
-0.005548829212784767,-0.003135894425213337,1.0560201189946383e-05
-0.005119170993566513,-0.0028662970289587975,1.060657359630568e-05
-0.004480951000005007,-0.0025523421354591846,1.097672702599084e-05
-0.003663585754111409,-0.002127597341313958,1.176582372863777e-05
-0.0028013065457344055,-0.001641364418901503,1.2063818758178968e-05
-0.0020806044340133667,-0.0011815766338258982,1.270629400096368e-05
-0.0014510118635371327,-0.0007458903128281236,1.2700252227659803e-05
-0.0006263793329708278,-0.0002599351282697171,1.2962103028257843e-05
0.00068660918623209,0.0004243071598466486,1.3717242836719379e-05
0.0021840864792466164,0.001219125697389245,1.4736963748873677e-05
0.003520326456055045,0.0019771261140704155,1.5111269021872431e-05
0.004915960133075714,0.0028362188022583723,1.5346035070251673e-05
0.006524011492729187,0.003859739052131772,1.625248660275247e-05
0.008015314117074013,0.0047715334221720695,1.7269667296204716e-05
0.00898127444088459,0.005280611105263233,1.772933501342777e-05
0.009182905778288841,0.005312759429216385,1.7438693248550408e-05
0.008810408413410187,0.0050659640692174435,1.7552982171764597e-05
0.008215321227908134,0.004755640868097544,1.7613749150768854e-05
0.007451954297721386,0.004391850903630257,1.7173430023831315e-05
0.006343899294734001,0.0037682584952563047,1.6594603948760778e-05
0.00465951394289732,0.002690349705517292,1.5844354493310675e-05
0.002716474002227187,0.0014705474022775888,1.4640490007877816e-05
0.0009691020241007209,0.00044555525528267026,1.3322295671969187e-05
-0.0009783798595890403,-0.0006764329154975712,1.2323611372266896e-05
-0.0030296535696834326,-0.0018521815072745085,1.1670718777168076e-05
-0.004920153878629208,-0.0029516578651964664,1.0439845937071368e-05
-0.006417141295969486,-0.0038000771310180426,9.680224138719495e-06
-0.00711055425927043,-0.004120006691664457,9.769364623934962e-06
-0.007154220249503851,-0.004099151585251093,1.021858952299226e-05
-0.0068736751563847065,-0.0039626494981348515,9.510386917099822e-06
-0.00660347193479538,-0.0038403563667088747,9.441166184842587e-06
-0.006292411126196384,-0.0036706209648400545,9.57919291977305e-06
-0.0059818727895617485,-0.0034566910471767187,1.01385321613634e-05
-0.0056835017167031765,-0.0032240389846265316,1.0425218533782754e-05
-0.005288981832563877,-0.0029827251564711332,1.0378146725997794e-05
-0.004698667209595442,-0.00269866269081831,1.0762156307464465e-05
-0.003936966881155968,-0.002319156425073743,1.1335730960126966e-05
-0.00309786107391119,-0.0018586782971397042,1.1652464309008792e-05
-0.002340828301385045,-0.0014010285958647728,1.1501616427267436e-05
-0.0017148911720141768,-0.0009788008173927665,1.2017489098070655e-05
-0.0009619328193366528,-0.0005070624174550176,1.257253188668983e-05
0.00020445989503059536,0.00012631808931473643,1.3312213013705332e-05
0.0017360489582642913,0.0009454030659981072,1.3866070730728097e-05
0.003123992821201682,0.0017192563973367214,1.4602949704567436e-05
0.0043749683536589146,0.0024750898592174053,1.5226827599690296e-05
0.005888545885682106,0.003435747930780053,1.619788963580504e-05
0.007535314187407494,0.004417587537318468,1.6864871213329025e-05
0.00880988035351038,0.0050795115530490875,1.7696847862680443e-05
0.009283256717026234,0.0052618784829974174,1.7504789866507053e-05
0.009014698676764965,0.005073889624327421,1.679296292422805e-05
0.008463958278298378,0.004779650829732418,1.7063584891729988e-05
0.007839489728212357,0.004456405993551016,1.689356031420175e-05
0.007001552265137434,0.003980319015681744,1.590745523571968e-05
0.005373454187065363,0.0030757784843444824,1.5741070455987938e-05
0.003228207351639867,0.0019347512861713767,1.4831332919129636e-05
0.0013072555884718895,0.0008601854788139462,1.3594160918728448e-05
-0.00047069668653421104,-0.00024537162971682847,1.2577955203596503e-05
-0.0023263113107532263,-0.001409614458680153,1.1539151273609605e-05
-0.004200755152851343,-0.0025352826341986656,1.1275756151007954e-05
-0.005859388504177332,-0.003461212618276477,1.0628962627379224e-05
-0.006910346448421478,-0.003988279495388269,1.0075523277919274e-05
-0.007188818417489529,-0.0041151633486151695,9.696690540295094e-06
-0.006987201981246471,-0.0040333885699510574,9.764286005520262e-06
-0.0066996547393500805,-0.0038806262891739607,1.0012206985265948e-05
-0.006425915285944939,-0.0036806100979447365,1.0139820005861111e-05
-0.0061325803399086,-0.0034359388519078493,9.997337656386662e-06
-0.005838298238813877,-0.003186075482517481,1.0378889783169143e-05
-0.005463297013193369,-0.0029583575669676065,1.043478914652951e-05
-0.0049135987646877766,-0.002728409366682172,1.0570118320174515e-05
-0.0042070490308105946,-0.002414001850411296,1.1068017556681298e-05
-0.0034007509239017963,-0.0019786034245043993,1.1232548786210828e-05
-0.002600447041913867,-0.0014905668795108795,1.1824429748230614e-05
-0.0019599520601332188,-0.001037024543620646,1.2512099601735827e-05
-0.0012805684236809611,-0.0005822029197588563,1.3086459148325957e-05
-0.00024037000548560172,-2.2163249013829045e-05,1.3463140930980444e-05
0.0013085947139188647,0.0008124540909193456,1.3767406926490366e-05
0.0027809138409793377,0.0016423733904957771,1.438160688849166e-05
0.00394111592322588,0.002277734922245145,1.5344281564466655e-05
0.005377879366278648,0.00311441533267498,1.607599733688403e-05
0.007099261041730642,0.00412498414516449,1.6920905181905255e-05
0.008498155511915684,0.00493536377325654,1.797905315470416e-05
0.009018993005156517,0.005288350861519575,1.8390555851510726e-05
0.00887743104249239,0.005222666542977095,1.800507197913248e-05
0.0085072610527277,0.004965741652995348,1.7737755115376785e-05
0.008034516125917435,0.004638393875211477,1.7621781807974912e-05
0.007333838846534491,0.004207257647067308,1.7204256437253207e-05
0.00595461018383503,0.0034365146420896053,1.6378402506234124e-05
0.003938787151128054,0.0023273404221981764,1.5175008229562081e-05
0.0019399416632950306,0.0011703352211043239,1.411214816471329e-05
0.00014545995509251952,3.6348719731904566e-05,1.323644846706884e-05
-0.0016743872547522187,-0.0011315089650452137,1.2814296496799216e-05
-0.003567937994375825,-0.0022931743878871202,1.1860979611810762e-05
-0.005357406102120876,-0.003301850287243724,1.0716423275880516e-05
-0.00666459184139967,-0.0039443508721888065,1.0084234418172855e-05
-0.007189340423792601,-0.004135072231292725,9.947765647666529e-06
-0.007062104064971209,-0.004054436460137367,9.86577015282819e-06
-0.006753941532224417,-0.0039237807504832745,1.001792315946659e-05
-0.00649286899715662,-0.0037864192854613066,1.0194705282629002e-05
-0.006235390901565552,-0.0036108847707509995,1.0335972547181882e-05
-0.005959962960332632,-0.0034073072019964457,1.0469460903550498e-05
-0.005612537264823914,-0.003207786474376917,1.0436530828883406e-05
-0.005076061934232712,-0.002977475756779313,1.1087303391832393e-05
-0.004421427380293608,-0.0026730671525001526,1.137275012297323e-05
-0.003697941778227687,-0.002264349488541484,1.1136969078506809e-05
-0.0028423380572348833,-0.0017514078645035625,1.1602553968259599e-05
-0.002086169784888625,-0.0013000223552808166,1.2702411368081812e-05
-0.001389867509715259,-0.0009063928737305105,1.3033642062509898e-05
-0.0005866280407644808,-0.0004334492259658873,1.3370034139370546e-05
0.0005317902541719377,0.00029034834005869925,1.3687409591511823e-05
0.0019600202795118093,0.0011481000110507011,1.4244046724343207e-05
0.0033106973860412836,0.0018753781914710999,1.5146513760555536e-05
0.004861404653638601,0.0027466104365885258,1.5680701835663058e-05
0.006629308219999075,0.0037866164930164814,1.6383184629376046e-05
0.008131568320095539,0.004710824694484472,1.7400334400008433e-05
0.00891764648258686,0.0052322507835924625,1.7794918676372617e-05
0.008997373282909393,0.005294961854815483,1.7786032913136296e-05
0.008711563423275948,0.005078413989394903,1.7641013982938603e-05
0.008265647105872631,0.004762826021760702,1.7444550394429825e-05
0.007657249923795462,0.004375554621219635,1.7192676750710234e-05
0.006530959624797106,0.00372870615683496,1.639929359953385e-05
0.004697281401604414,0.0027215720620006323,1.534042166895233e-05
0.0026247818022966385,0.00156244111713022,1.434853402315639e-05
0.0008145741303451359,0.00047732001985423267,1.3812092220177874e-05
-0.0009620437631383538,-0.0006175162852741778,1.2891573533124756e-05
-0.00288579729385674,-0.0017610418144613504,1.1733722203643993e-05
-0.004830311518162489,-0.0028715752996504307,1.051390245265793e-05
-0.006425898987799883,-0.003702753921970725,1.026357313094195e-05
-0.007177892606705427,-0.004038969986140728,1.0177279364143033e-05
-0.007081365212798119,-0.004011683166027069,1.0015217412728816e-05
-0.006759315729141235,-0.00391392083838582,1.0396507605037186e-05
-0.006550219841301441,-0.003817788790911436,9.795549885893706e-06
-0.006309360731393099,-0.0036641829647123814,9.68018048297381e-06
-0.0059643276035785675,-0.003439462510868907,1.0338189895264804e-05
-0.005568081978708506,-0.0031879835296422243,1.0437306627864018e-05
-0.005169144365936518,-0.0029298660811036825,1.0894050319620874e-05
-0.004779867362231016,-0.0026516627985984087,1.1156856089655776e-05
-0.004151849076151848,-0.0022702403366565704,1.1249131603108253e-05
-0.003232632763683796,-0.0018002612050622702,1.1710442777257413e-05
-0.002335415920242667,-0.0013564099790528417,1.213899849972222e-05
-0.001562148449011147,-0.0009646386024542153,1.2885802789242007e-05
-0.0008543774602003396,-0.0005488102324306965,1.3075752576696686e-05
7.345483027165756e-05,4.184478166280314e-05,1.3462160495691933e-05
0.0013875835575163364,0.0008141528232954443,1.4288327292888425e-05
0.0028188114520162344,0.001589705003425479,1.5086695384525228e-05
0.004323930945247412,0.002420342992991209,1.5899018762866035e-05
0.006041307467967272,0.0034208267461508512,1.684478047536686e-05
0.00767423864454031,0.004415061790496111,1.7461008610553108e-05
0.008729241788387299,0.005111874081194401,1.768281072145328e-05
0.009053274057805538,0.005343327298760414,1.8006796381087042e-05
0.008877214975655079,0.005190682597458363,1.762582360242959e-05
0.008469031192362309,0.004889309406280518,1.705370050331112e-05
0.00791380275040865,0.004555140156298876,1.6789150322438218e-05
0.007021633442491293,0.004057732410728931,1.6591766325291246e-05
0.005411379039287567,0.0031842554453760386,1.5704052202636376e-05
0.003308936720713973,0.0020003365352749825,1.4667546565760858e-05
0.0014543513534590602,0.0008649532101117074,1.3751169717579614e-05
-0.00027127572684548795,-0.0002418204676359892,1.2718094694719184e-05
-0.002128445776179433,-0.0013780618319287896,1.1539993465703446e-05
-0.004196580499410629,-0.002575318329036236,1.1021000318578444e-05
-0.006006421055644751,-0.0035686681512743235,1.0571127859293483e-05
-0.0069004143588244915,-0.004039110615849495,9.762906302057672e-06
-0.007062581367790699,-0.004073785617947578,1.0012753591581713e-05
-0.006965120788663626,-0.003913962747901678,9.597659300197847e-06
-0.006835676729679108,-0.0038231974467635155,9.561240403854754e-06
-0.006508368533104658,-0.003711372846737504,1.0269659469486214e-05
-0.0060938321985304356,-0.003540745237842202,1.037387119140476e-05
-0.0056481375358998775,-0.00331614026799798,1.0434971045469865e-05
-0.005288568325340748,-0.003087471704930067,1.038258142216364e-05
-0.004942089784890413,-0.0028109336271882057,1.0426716471556574e-05
-0.00438826996833086,-0.0024525593034923077,1.0730656867963262e-05
-0.003532732604071498,-0.0020056492649018764,1.141904795076698e-05
-0.002603953704237938,-0.001539815915748477,1.2181783858977724e-05
-0.0018099963199347258,-0.0011124741286039352,1.2760878234985285e-05
-0.0011129501508548856,-0.0006879940046928823,1.288294697587844e-05
-0.00031651396420784295,-0.0001703377056401223,1.3315975593286566e-05
0.0008870477322489023,0.0005616947310045362,1.375099782308098e-05
0.0023529292084276676,0.0013634406495839357,1.3963434867036995e-05
0.0038190947379916906,0.0021352304611355066,1.4648269825556781e-05
0.005422135349363089,0.003052088199183345,1.578170122229494e-05
0.007157396990805864,0.00412109075114131,1.7152218788396567e-05
0.008446726948022842,0.0049677356146276,1.7813976228353567e-05
0.00904079806059599,0.0053468132391572,1.7776479580788873e-05
0.009021226316690445,0.005255375988781452,1.7738195310812443e-05
0.008665145374834538,0.004982545506209135,1.7192580344271846e-05
0.008170364424586296,0.004703563172370195,1.7056448996299878e-05
0.007473751436918974,0.004344443324953318,1.6890278857317753e-05
0.006151795852929354,0.0036278325133025646,1.641750532144215e-05
0.0041486723348498344,0.00247282930649817,1.5691435692133382e-05
0.0021262182854115963,0.0012950171949341893,1.4284032658906654e-05
0.0002121677389368415,0.00021240876230876893,1.2866271390521433e-05
-0.0017423826502636075,-0.000955008901655674,1.1823789463960566e-05
-0.003633023239672184,-0.0021523793693631887,1.113643065764336e-05
-0.005391110200434923,-0.0032400130294263363,1.0421790648251772e-05
-0.006559744942933321,-0.003926367964595556,1.0272553481627256e-05
-0.007005920633673668,-0.004120942670851946,1.0005062904383522e-05
-0.007028852589428425,-0.0040327757596969604,1.011964832287049e-05
-0.006886202841997147,-0.0039045866578817368,9.867204425972886e-06
-0.006610400043427944,-0.0037889431696385145,9.75115744950017e-06
-0.006228624377399683,-0.00360879790969193,1.0027447387983557e-05
-0.005806778557598591,-0.0033596728462725878,1.053762298397487e-05
-0.005425788927823305,-0.0030973199754953384,1.049604998115683e-05
-0.005096663720905781,-0.0028532561846077442,1.019015962810954e-05
-0.0046143801882863045,-0.0025685494765639305,1.0612347978167236e-05
-0.003837913041934371,-0.002187972655519843,1.123820857173996e-05
-0.002888365415856242,-0.0017122644931077957,1.1745125448214822e-05
-0.0020585020538419485,-0.001256072660908103,1.1747426469810307e-05
-0.0013578874059021473,-0.0008191491942852736,1.1884167179232463e-05
-0.0006674365722574294,-0.00034393416717648506,1.2458866876841057e-05
0.00040106981759890914,0.0003015607362613082,1.3261122148833238e-05
0.0019211933249607682,0.0010890585836023092,1.435512604075484e-05
0.003354777581989765,0.0018035336397588253,1.5154448192333803e-05
0.004748153034597635,0.0025848993100225925,1.5063962564454414e-05
0.006614926271140575,0.0036935589741915464,1.6579140719841234e-05
0.008215393871068954,0.004675980191677809,1.723515561025124e-05
0.00905956607311964,0.005198660772293806,1.7545147784403525e-05
0.00914341863244772,0.0052734375931322575,1.8203956642537378e-05
0.008630536496639252,0.0050407941453158855,1.778610203473363e-05
0.0081080486997962,0.004756232723593712,1.7373162336298265e-05
0.007586205843836069,0.00440455786883831,1.6812224203022197e-05
0.006646009162068367,0.003813024377450347,1.6404037523898296e-05
0.004919769242405891,0.0027983959298580885,1.544042424939107e-05
0.002866655820980668,0.001644274452701211,1.4729451322637033e-05
0.0008606399642303586,0.0005428320146165788,1.4052577171241865e-05
-0.0010707812616601586,-0.0005843353574164212,1.3078096344543155e-05
-0.0029531740583479404,-0.001768335816450417,1.177473404823104e-05
-0.004761084448546171,-0.0029028672724962234,1.0775359442050103e-05
-0.006184089928865433,-0.00373855815269053,1.0143891813640948e-05
-0.006939318031072617,-0.004098214209079742,9.856562428467441e-06
-0.007105686701834202,-0.004085096996277571,1.0189103704760782e-05
-0.006991368718445301,-0.003973627462983131,1.017701652017422e-05
-0.0067212749272584915,-0.0038500879891216755,9.78403022600105e-06
-0.0063701109029352665,-0.0036884613800793886,9.775522812560666e-06
-0.005966240540146828,-0.0034719023387879133,1.0164058949158061e-05
-0.005588647909462452,-0.0032443362288177013,1.0363687579229008e-05
-0.005275271367281675,-0.003008086932823062,1.0497662515263073e-05
-0.004862941801548004,-0.002723317127674818,1.0805218153109308e-05
-0.00413399888202548,-0.002341229235753417,1.1730532605724875e-05
-0.003184146713465452,-0.0018602347699925303,1.2069101103406865e-05
-0.0023358517792075872,-0.001396901672706008,1.1786403774749488e-05
-0.0016015772707760334,-0.0009720984380692244,1.2293133295315783e-05
-0.000885120069142431,-0.0005457556108012795,1.2804189282178413e-05
0.00010077994375023991,3.6954719689674675e-05,1.3504092748917174e-05
0.0015130731044337153,0.0008804427925497293,1.4161293620418292e-05
0.0027481415309011936,0.001633159350603819,1.450425224902574e-05
0.004044269677251577,0.002385161817073822,1.5359511962742545e-05
0.005840375553816557,0.0033881112467497587,1.6066489479271695e-05
0.007631903979927301,0.004388386849313974,1.7181413568323478e-05
0.008854487910866737,0.005087168887257576,1.7641697922954336e-05
0.009184706956148148,0.005329131614416838,1.8002940123551525e-05
0.008833079598844051,0.00521089555695653,1.7951080735656433e-05
0.008301734924316406,0.004923021886497736,1.743119537422899e-05
0.007812709547579288,0.004568139091134071,1.713739038677886e-05
0.007051882334053516,0.004054524935781956,1.680006243987009e-05
0.005607823841273785,0.003191546304151416,1.6066023817984387e-05
0.0035913619212806225,0.00205110851675272,1.5040733160276432e-05
0.001525729545392096,0.0009126094519160688,1.4015668057254516e-05
-0.0004054745950270444,-0.0001935357431648299,1.2879837413493078e-05
-0.002267049625515938,-0.0013346237828955054,1.2265069926797878e-05
-0.004096516873687506,-0.0024557597935199738,1.1411202649469487e-05
-0.005729955621063709,-0.003419319400563836,1.0348087016609497e-05
-0.006788835860788822,-0.004008154384791851,9.705246156954672e-06
-0.007145084906369448,-0.004130900371819735,9.816572855925187e-06
-0.007070939987897873,-0.004017177037894726,1.00131055660313e-05
-0.0067944214679300785,-0.003885958343744278,1.0121422747033648e-05
-0.006452028173953295,-0.0037616039626300335,1.0006363481807057e-05
-0.006090441253036261,-0.003593313042074442,9.813637916522566e-06
-0.005673289764672518,-0.0033705278765410185,1.0244099030387588e-05
-0.005290484055876732,-0.0031243013218045235,1.0542283234826755e-05
-0.004868850577622652,-0.0028394118417054415,1.0561443559709005e-05
-0.004328798968344927,-0.002468222752213478,1.1120861017843708e-05
-0.003660316579043865,-0.0020002780947834253,1.1011645256076008e-05
-0.002838844433426857,-0.0015362799167633057,1.1594534043979365e-05
-0.001981595531105995,-0.0011400912189856172,1.221231013914803e-05
-0.0011508841998875141,-0.0007543085957877338,1.2654114470933564e-05
-0.00020575919188559055,-0.00025624039699323475,1.3169666090107057e-05
0.0010491691064089537,0.0004939488135278225,1.3823880181007553e-05
0.0023225308395922184,0.001308949082158506,1.4661815839644987e-05
0.003574921516701579,0.002087508561089635,1.5445259123225696e-05
0.005203390493988991,0.003031734377145767,1.61158422997687e-05
0.007023995276540518,0.004072925541549921,1.687452822807245e-05
0.008478919975459576,0.004926732741296291,1.761426028679125e-05
0.009117771871387959,0.005349096842110157,1.7890937670017593e-05
0.008956976234912872,0.0053233494982123375,1.8032656953437254e-05
0.00844772532582283,0.0050399391911923885,1.767360845406074e-05
0.007979536429047585,0.004688311833888292,1.748670001688879e-05
0.0073852878995239735,0.004241203423589468,1.7255948478123173e-05
0.0062187425792217255,0.0035120791289955378,1.6560574294999242e-05
0.0043006050400435925,0.002427741652354598,1.528636312286835e-05
0.0021522159222513437,0.0012928296346217394,1.4386410839506425e-05
0.00021952968381810933,0.00025603550602681935,1.3648835192725528e-05
-0.0016140983207151294,-0.0008584442548453808,1.27570383483544e-05
-0.0034512714482843876,-0.0020313917193561792,1.1676283065753523e-05
-0.005197255406528711,-0.0031069174874573946,1.0252320862491615e-05
-0.006555359810590744,-0.0038945062551647425,9.917475836118683e-06
-0.007063754368573427,-0.004147550091147423,9.92237346508773e-06
-0.006980412639677525,-0.004066691733896732,9.858727935352363e-06
-0.006848672404885292,-0.003959691617637873,1.0220455806120299e-05
-0.006714413408190012,-0.0038150986656546593,1.0196385119343176e-05
-0.0064415414817631245,-0.003642061958089471,1.052647530741524e-05
-0.005933722015470266,-0.003410504898056388,1.03156162367668e-05
-0.00544041907414794,-0.0031818635761737823,1.0472243047843222e-05
-0.004962515085935593,-0.0029444918036460876,1.0565417142061051e-05
-0.004505055490881205,-0.0026640640571713448,1.0972275049425662e-05
-0.0039161317981779575,-0.00226366869173944,1.12506431833026e-05
-0.0031238971278071404,-0.0017839347710832953,1.1585767424548976e-05
-0.0022394389379769564,-0.0013248117174953222,1.208447247336153e-05
-0.0013936420436948538,-0.0009026730549521744,1.254632843483705e-05
-0.0005100888665765524,-0.00042682577623054385,1.2924816473969258e-05
0.0006499368464574218,0.0002663565974216908,1.3305298125487752e-05
0.0019706713501363993,0.001096000662073493,1.4026674762135372e-05
0.003211942268535495,0.0018505180487409234,1.4695910067530349e-05
0.0046064057387411594,0.0026407849509269,1.57414615387097e-05
0.006384804844856262,0.0036514608655124903,1.6715750462026335e-05
0.008039180189371109,0.00461870850995183,1.777366742317099e-05
0.009020245634019375,0.0052225664258003235,1.7802130969357677e-05
0.009080731309950352,0.005344226025044918,1.7735308574629016e-05
0.008627631701529026,0.0051386537961661816,1.748672002577223e-05
0.008172877132892609,0.004807232413440943,1.7402648154529743e-05
0.007697296794503927,0.004431159235537052,1.715267171675805e-05
0.00686727836728096,0.003926513716578484,1.678505759628024e-05
0.005100588779896498,0.002917345380410552,1.5920040823402815e-05
0.0029397783800959587,0.0016836379654705524,1.4554344488715287e-05
0.0010837230365723372,0.0006037734565325081,1.3582046449300833e-05
-0.0008672713884152472,-0.0005227937363088131,1.2608351426024456e-05
-0.002880432875826955,-0.001621988252736628,1.1880963029398117e-05
-0.0047584520652890205,-0.0026798483449965715,1.1270556569797918e-05
-0.006139247212558985,-0.003533510258421302,1.0366690730734263e-05
-0.006854292470961809,-0.004002103116363287,9.617734576750081e-06
-0.006982423830777407,-0.004081247840076685,9.588496141077485e-06
-0.006903104949742556,-0.003967194817960262,9.952554137271363e-06
-0.006810883525758982,-0.003807262983173132,1.0060760359920096e-05
-0.006572685204446316,-0.003643432864919305,1.0078879313368816e-05
-0.006125280633568764,-0.003460905747488141,1.0224810466752388e-05
-0.005605265032500029,-0.0032247849740087986,1.0411365110485349e-05
-0.005143849179148674,-0.002955412957817316,1.040448114508763e-05
-0.004702011588960886,-0.002662275219336152,1.040647657646332e-05
-0.004195705987513065,-0.0023458432406187057,1.0876899978029542e-05
-0.0034496798180043697,-0.0019446432124823332,1.1697071386151947e-05
-0.0025524499360471964,-0.001512030721642077,1.198824065795634e-05
-0.00167876947671175,-0.0010876829037442803,1.242587768501835e-05
-0.0008607105119153857,-0.0006417898111976683,1.2879209862148855e-05
0.00015980865282472223,-6.8143940552545246e-06,1.3215924809628632e-05
0.0014836967457085848,0.0008811005973257124,1.4178371202433482e-05
0.002802057657390833,0.0017353827133774757,1.4772128452023026e-05
0.004060952924191952,0.0024378388188779354,1.513860024715541e-05
0.005746698472648859,0.0033731695730239153,1.5488139979424886e-05
0.007512263488024473,0.004396695178002119,1.6650565157760866e-05
0.008859039284288883,0.005179612897336483,1.7760299670044333e-05
0.00927507784217596,0.005407390184700489,1.781977880455088e-05
0.008941426873207092,0.005180683918297291,1.7767959434422664e-05
0.008409949019551277,0.004866911564022303,1.7812637452152558e-05
0.007728000171482563,0.004513109102845192,1.728539245959837e-05
0.006944274064153433,0.004054660443216562,1.6845531717990525e-05
0.005562469828873873,0.0031918142922222614,1.6124948160722852e-05
0.00367051362991333,0.002063520485535264,1.5068028005771339e-05
0.0017601317958906293,0.0009450438665226102,1.4170347640174441e-05
-0.0001762446336215362,-0.00016837699513416737,1.3141829185769893e-05
-0.0022300533019006252,-0.0013174725463613868,1.239967423316557e-05
-0.0041974689811468124,-0.0024368837475776672,1.1215956874366384e-05
-0.005781075451523066,-0.003402928588911891,1.0397521691629663e-05
-0.0067080664448440075,-0.004011683631688356,1.0415020369691774e-05
-0.006968048866838217,-0.004192108754068613,1.0122585990757216e-05
-0.006914189551025629,-0.004104867577552795,9.880398465611506e-06
-0.006844500079751015,-0.003957779612392187,1.0046787792816758e-05
-0.006683369632810354,-0.0038234260864555836,1.0198338713962585e-05
-0.00627546850591898,-0.003646853845566511,1.037320453178836e-05
-0.00575381051748991,-0.003401474328711629,1.0435150215926114e-05
-0.005284658633172512,-0.003121728776022792,1.0531607586017344e-05
-0.004868375603109598,-0.0028395310509949923,1.1047164662159048e-05
-0.004421539604663849,-0.0025126663967967033,1.1211532182642259e-05
-0.003746466478332877,-0.00208681495860219,1.1704358257702552e-05
-0.0028027724474668503,-0.0016037357272580266,1.212470669997856e-05
-0.0019004095811396837,-0.0011671418324112892,1.2051825251546688e-05
-0.001149398973211646,-0.0007540525402873755,1.2112846889067441e-05
-0.00030273565789684653,-0.00024348028819076717,1.2636760402529035e-05
0.0009524811175651848,0.0005158838466741145,1.3686403690371662e-05
0.0023493622429668903,0.0013267400208860636,1.4591718354495242e-05
0.0035986618604511023,0.0020558303222060204,1.5357090887846425e-05
0.005077003967016935,0.0029870918951928616,1.593196066096425e-05
0.006846155971288681,0.004058225080370903,1.6868068996700458e-05
0.008389224298298359,0.004922342486679554,1.759932274580933e-05
0.009176740422844887,0.005342148710042238,1.8017499314737506e-05
0.009154503233730793,0.00531513849273324,1.7935439245775342e-05
0.00865559745579958,0.00506215263158083,1.738391802064143e-05
0.007988499477505684,0.004732838831841946,1.712152334221173e-05
0.00726458290591836,0.004317107610404491,1.6777334167272784e-05
0.00614477414637804,0.0035990041214972734,1.596614674781449e-05
0.004412388429045677,0.002528632991015911,1.5290837836801074e-05
0.0024599155876785517,0.0013866769149899483,1.4282692973210942e-05
0.0005216446588747203,0.0003049628285225481,1.2990359209652524e-05
-0.0015061780577525496,-0.0008192270179279149,1.2392824828566518e-05
-0.0035504174884408712,-0.002007963601499796,1.1370347237971146e-05
-0.005326266400516033,-0.0031076681334525347,1.0333289537811652e-05
-0.0065221525728702545,-0.003858398413285613,9.814401892072055e-06
-0.0069539207033813,-0.004102259874343872,9.280481208406854e-06
-0.0069115376099944115,-0.004032354801893234,9.626394785300363e-06
-0.006846876349300146,-0.003905968274921179,9.880958714347798e-06
-0.006747005041688681,-0.0037774767260998487,1.0003926945501007e-05
-0.006380346138030291,-0.0035887660924345255,1.0462547834322322e-05
-0.005856382194906473,-0.003361230017617345,1.0362035027355887e-05
-0.005399003159254789,-0.003171829739585519,1.0441172889841255e-05
-0.004963414743542671,-0.0029781246557831764,1.0381108950241469e-05
-0.004507679026573896,-0.00270858034491539,1.0977299098158255e-05
-0.0038739412557333708,-0.002303498098626733,1.1408712452976033e-05
-0.0030542572494596243,-0.0017908256268128753,1.1389938663342036e-05
-0.002343014581128955,-0.0013174500782042742,1.1926285878871568e-05
-0.0016147001879289746,-0.0008763050427660346,1.2586045158968773e-05
-0.0007303237798623741,-0.0004112497845198959,1.2557641639432404e-05
0.00047704900498501956,0.0002362812083447352,1.3226974260760471e-05
0.0018856971291825175,0.0010189018212258816,1.4279045899456833e-05
0.003146373201161623,0.0017684106715023518,1.4752515198779292e-05
0.004522009287029505,0.002644419902935624,1.554548907733988e-05
0.006231119390577078,0.0036839484237134457,1.6069910998339765e-05
0.007926419377326965,0.004633249249309301,1.6816413335618563e-05
0.00900737103074789,0.005198297090828419,1.738299397402443e-05
0.009246946312487125,0.005293024238198996,1.781497303454671e-05
0.008853958919644356,0.005061474163085222,1.7776275853975676e-05
0.008205329068005085,0.0047318884171545506,1.7567466784385033e-05
0.007526354398578405,0.0043775588274002075,1.703443194855936e-05
0.006637134589254856,0.003824471263214946,1.649161276873201e-05
0.005106830038130283,0.002866841619834304,1.558791882416699e-05
0.003115421859547496,0.0016731993528082967,1.4702616681461222e-05
0.0011694305576384068,0.0005623694742098451,1.4203068531060126e-05
-0.0008203556062653661,-0.0005106602911837399,1.2971023352292832e-05
-0.0028726898599416018,-0.0016443951753899455,1.1717463166860398e-05
-0.00473500182852149,-0.002769889310002327,1.1036148862331174e-05
-0.006193799432367086,-0.0036890306510031223,1.0383200788055547e-05
-0.0069108945317566395,-0.004130007699131966,9.176260391541291e-06
-0.006937181577086449,-0.004132298287004232,9.545322427584324e-06
-0.0067852758802473545,-0.003997371532022953,9.339759344584309e-06
-0.006640291307121515,-0.0038648932240903378,9.657467671786435e-06
-0.006426330655813217,-0.003674427978694439,1.0595175808703061e-05
-0.006161015946418047,-0.003422170178964734,1.022007654682966e-05
-0.005766686517745256,-0.003180449828505516,1.0552790627116337e-05
-0.005244504194706678,-0.002954217605292797,1.0296154869138263e-05
-0.00467541953548789,-0.002676588948816061,1.0485998245712835e-05
-0.004020200576633215,-0.0023040096275508404,1.0960467989207245e-05
-0.0032840820495039225,-0.0018516716081649065,1.1678012924676295e-05
-0.002583458786830306,-0.001412120764143765,1.1895782336068805e-05
-0.0018683422822505236,-0.0010090151336044073,1.2276557754375972e-05
-0.0010175928473472595,-0.0005920362891629338,1.2742242688545957e-05
8.099756814772263e-05,-1.8323349650017917e-05,1.3375456546782516e-05
0.0014454978518188,0.0007612849585711956,1.3786641829938162e-05
0.0027511310763657093,0.0015589268878102303,1.411351331626065e-05
0.0039869616739451885,0.002356152515858412,1.5135987268877216e-05
0.005548688117414713,0.0033110075164586306,1.603776945557911e-05
0.007358026225119829,0.004325138870626688,1.6895106455194764e-05
0.008740836754441261,0.005057928618043661,1.7166068573715165e-05
0.009265863336622715,0.00532465148717165,1.7475817003287375e-05
0.009015951305627823,0.005196710117161274,1.7369315173709765e-05
0.008387519046664238,0.004920485895127058,1.7174665117636323e-05
0.00775090791285038,0.004614565521478653,1.7027421563398093e-05
0.007091485895216465,0.004195794928818941,1.68348997249268e-05
0.0058217584155499935,0.003398272441700101,1.6288266124320216e-05
0.0038885916583240032,0.0022356295958161354,1.471596897317795e-05
0.0018622858915477991,0.001033037668094039,1.3622559890791308e-05
-5.68932227906771e-05,-8.12890357337892e-05,1.3327332453627605e-05
-0.002005591755732894,-0.0012182670179754496,1.1858945072162896e-05
-0.004040297586470842,-0.002391235437244177,1.1238046681683045e-05
-0.005863990634679794,-0.0033828308805823326,1.053447340382263e-05
-0.006935295183211565,-0.00395702151581645,9.920956472342368e-06
-0.007072645239531994,-0.004067291039973497,9.486101589573082e-06
-0.0068641784600913525,-0.003986830823123455,9.391409548697993e-06
-0.006656450219452381,-0.003874056739732623,9.617318028176669e-06
-0.006507083307951689,-0.0037587617989629507,9.727743417897727e-06
-0.006302251946181059,-0.003594823880121112,9.750501703820191e-06
-0.0059341914020478725,-0.003380252979695797,1.0053942787635606e-05
-0.00542064243927598,-0.0031435121782124043,1.0282999028277118e-05
-0.004865153692662716,-0.0028864655178040266,1.0627395568008069e-05
-0.004272002261132002,-0.002575583290308714,1.1306987289572135e-05
-0.0035814251750707626,-0.0021552264224737883,1.130687724071322e-05
-0.0028670700266957283,-0.0016780440928414464,1.1758736945921555e-05
-0.0021391024347394705,-0.0012299721129238605,1.1738134162442293e-05
-0.0013200114481151104,-0.0008186742779798806,1.1953517969232053e-05
-0.0003206328547094017,-0.00031492882408201694,1.254028029507026e-05
0.000944484316278249,0.0004066275723744184,1.3317036973603535e-05
0.002326937159523368,0.001250509056262672,1.4212066162144765e-05
0.003501421306282282,0.0020277686417102814,1.5194991647149436e-05
0.004918112885206938,0.0029257594142109156,1.5856359823374078e-05
0.006795849185436964,0.003982206340879202,1.675280145718716e-05
0.008454080671072006,0.004866438917815685,1.7136839232989587e-05
0.009294341318309307,0.005324523895978928,1.7106658560805954e-05
0.009229367598891258,0.0053036389872431755,1.770704511727672e-05
0.008691536262631416,0.005037564784288406,1.7863494576886296e-05
0.00812266580760479,0.004733382258564234,1.7201213267981075e-05
0.007448517717421055,0.004362375475466251,1.658898872847203e-05
0.006186497397720814,0.0037030840758234262,1.6162397514563054e-05
0.004283832851797342,0.0026118222158402205,1.5650664863642305e-05
0.0023859862703830004,0.0014118883991613984,1.4721846127940807e-05
0.0005962267168797553,0.00026414578314870596,1.3559481885749847e-05
-0.001299800118431449,-0.0009135368163697422,1.2438932571967598e-05
-0.003320288145914674,-0.0020885253325104713,1.1119883311039302e-05
-0.005270280875265598,-0.0031470346730202436,1.0180639947066084e-05
-0.0066120680421590805,-0.003874913090839982,9.925855920300819e-06
-0.007063263561576605,-0.004159025382250547,9.71488952927757e-06
-0.006943432614207268,-0.004117280710488558,1.0044452210422605e-05
-0.0067343320697546005,-0.003981119021773338,1.0260465387545992e-05
-0.0065862745977938175,-0.003827047301456332,1.0077686965814792e-05
-0.00642257509753108,-0.003632332431152463,9.953349035640713e-06
-0.006093700882047415,-0.0033897266257554293,9.84921553026652e-06
-0.005591347347944975,-0.0031443715561181307,1.0149446097784676e-05
-0.005034073255956173,-0.0028996518813073635,1.0398280210210942e-05
-0.004482225980609655,-0.0026201382279396057,1.0641418157320004e-05
-0.0038556912913918495,-0.0022595273330807686,1.1387897757231258e-05
-0.003152821445837617,-0.001815764349885285,1.1907042789971456e-05
-0.0024186319205909967,-0.0013774182880297303,1.2310730198805686e-05
-0.0015914394753053784,-0.0009627422550693154,1.2580089787661564e-05
-0.0006752954213880002,-0.0004941415973007679,1.2933299331052694e-05
0.0004431111738085747,0.00016316783148795366,1.3226686860434711e-05
0.001978419255465269,0.0010937544284388423,1.3841642612533178e-05
0.0032210317440330982,0.001858701347373426,1.4867191566736437e-05
0.004456351511180401,0.0026103456038981676,1.5201969290501438e-05
0.006213770713657141,0.0036629445385187864,1.609953324077651e-05
0.007773479912430048,0.004633178003132343,1.679409615462646e-05
0.008839470334351063,0.005263983272016048,1.7707587176118977e-05
0.009140592999756336,0.005363848526030779,1.7751306586433202e-05
0.008895098231732845,0.005149622913450003,1.781515311449766e-05
0.008387189358472824,0.0048221563920378685,1.758192593115382e-05
0.007724185008555651,0.004459261428564787,1.7245611161342822e-05
0.006641580257564783,0.0038809780962765217,1.677521322562825e-05
0.004968375898897648,0.00290957884863019,1.5728253856650554e-05
0.003072301158681512,0.001736903446726501,1.4653585822088644e-05
0.0012462073937058449,0.000598455430008471,1.3914795090386178e-05
-0.0006068130605854094,-0.0005146431503817439,1.3251638847577851e-05
-0.0026170036289840937,-0.0016471483977511525,1.1889016604982316e-05
-0.004619271028786898,-0.002718936186283827,1.0903577276621945e-05
-0.006223744247108698,-0.0035906024277210236,1.0160992133023683e-05
-0.006981608923524618,-0.004062879830598831,9.703469004307408e-06
-0.00701573072001338,-0.004145828075706959,9.44434304983588e-06
-0.006800094153732061,-0.0040381853468716145,9.751026482263114e-06
-0.006655212491750717,-0.0039167869836091995,9.71919325820636e-06
-0.006527749355882406,-0.0037656882777810097,9.804153705772478e-06
-0.006250048987567425,-0.0035706129856407642,1.0066671165986918e-05
-0.005729385651648045,-0.0033251354470849037,1.0380180356150959e-05
-0.005175746511667967,-0.003067607758566737,1.0126016604772303e-05
-0.0046743652783334255,-0.0027943835593760014,1.0335898878111038e-05
-0.0040753991343081,-0.0024314248003065586,1.0466810635989532e-05
-0.0033007084857672453,-0.0019383521284908056,1.118532964028418e-05
-0.0025073145516216755,-0.0014411612646654248,1.1835588338726666e-05
-0.001792269293218851,-0.0009793555364012718,1.2164243344159331e-05
-0.0011459990637376904,-0.0005288069951348007,1.2806021914002486e-05
-0.0001793844421627,5.155407779966481e-05,1.2903426068078261e-05
0.0012746617430821061,0.0008526896126568317,1.3632347872771788e-05
0.002670601010322571,0.0016208175802603364,1.4370625649462454e-05
0.0039626313373446465,0.002368893940001726,1.5249169337039348e-05
0.005522102117538452,0.0033326682168990374,1.5606274246238172e-05
0.00712826382368803,0.0043289498426020145,1.6528971173102036e-05
0.00839194841682911,0.005048849154263735,1.7305212168139406e-05
0.00900684017688036,0.005308310501277447,1.7602807929506525e-05
0.008938067592680454,0.005185571499168873,1.7809503333410248e-05
0.00849077943712473,0.004906828049570322,1.749618604662828e-05
0.007864190265536308,0.0045905099250376225,1.702421832305845e-05
0.0069662597961723804,0.004146562423557043,1.6646235962980427e-05
0.005547334440052509,0.00334909581579268,1.6163803593371995e-05
0.0037056193687021732,0.002226173644885421,1.5073991562530864e-05
0.0018352484330534935,0.0010891305282711983,1.3908172149967868e-05
2.420214696030598e-05,3.304875281173736e-05,1.295286256208783e-05
-0.001945963827893138,-0.0010871232952922583,1.2209212400193792e-05
-0.004004651680588722,-0.0022340414579957724,1.099509699997725e-05
-0.0058235833421349525,-0.0032831598073244095,1.0059559826913755e-05
-0.006861094851046801,-0.003942958079278469,9.743384907778818e-06
-0.007036713417619467,-0.004073633346706629,9.728618351800833e-06
-0.006841306574642658,-0.00392906554043293,9.740741916175466e-06
-0.0066580758430063725,-0.003782043233513832,1.0017775821324904e-05
-0.006488634739071131,-0.0036502487491816282,9.839522135735024e-06
-0.006191663909703493,-0.0034905008506029844,9.659631359681953e-06
-0.005804813001304865,-0.0032759851310402155,1.0308715900464449e-05
-0.00548087852075696,-0.0030236945021897554,1.090638033929281e-05
-0.005043369717895985,-0.0027465452440083027,1.1123516742372885e-05
-0.004387998953461647,-0.002438596449792385,1.1041372999898158e-05
-0.003555238014087081,-0.002038164995610714,1.1532376447576098e-05
-0.002697376301512122,-0.001593450433574617,1.1762974281737115e-05
-0.001987539231777191,-0.0011759587796404958,1.2119047823944129e-05
-0.001359333866275847,-0.0007713544764555991,1.2456029253371526e-05
-0.0004962431266903877,-0.000272957346169278,1.2730654816550668e-05
0.0008763399091549218,0.00046943488996475935,1.3606049833470024e-05
0.0023855138570070267,0.0013052632566541433,1.452050946681993e-05
0.0037034230772405863,0.0020693952683359385,1.5121510841709096e-05
0.005092207342386246,0.0029193328227847815,1.5477788110729307e-05
0.0066896178759634495,0.003926086239516735,1.644659641897306e-05
0.008142328821122646,0.00481071975082159,1.7208185454364866e-05
0.009050922468304634,0.005276631563901901,1.745535155350808e-05
0.009199387393891811,0.005263245198875666,1.7459002265240997e-05
0.008804643526673317,0.004980132449418306,1.7377758922521025e-05
0.008205004967749119,0.004627103451639414,1.7087426385842264e-05
0.007423654664307833,0.0042361910454928875,1.6679447071510367e-05
0.006263538263738155,0.0036160540767014027,1.605053330422379e-05
0.004528711084276438,0.0025426207575947046,1.5028390407678671e-05
0.0025947450194507837,0.0013166647404432297,1.383427661494352e-05
0.0008533323998562992,0.00026105172582902014,1.3078984011372086e-05
-0.001111270161345601,-0.0008877420332282782,1.3103621313348413e-05
-0.0031570226419717073,-0.00204073335044086,1.1976600035268348e-05
-0.005004772450774908,-0.0030628195963799953,1.0542884410824627e-05
-0.006432750262320042,-0.0038373295683413744,9.878032869892195e-06
-0.007079083006829023,-0.004124891012907028,9.444792340218555e-06
-0.0071098520420491695,-0.004121203441172838,9.642924851505086e-06
-0.0068311262875795364,-0.004012770485132933,9.753355698194355e-06
-0.006549584213644266,-0.003890757216140628,9.931423846865073e-06
-0.006230680737644434,-0.00372442789375782,1.0103753993462306e-05
-0.005917217582464218,-0.00352386012673378,1.0042795111075975e-05
-0.0056161899119615555,-0.003287501400336623,1.0275605745846406e-05
-0.005217771977186203,-0.003015746595337987,1.0734958777902648e-05
-0.004621540196239948,-0.0027137661818414927,1.0777995157695841e-05
-0.0038511049933731556,-0.0023405791725963354,1.0984651453327388e-05
-0.00300809764303267,-0.0018937549320980906,1.1892516340594739e-05
-0.0022563047241419554,-0.0014372514560818672,1.2078523468517233e-05
-0.0016336585395038128,-0.0010078155901283026,1.2439007150533143e-05
-0.0008732209098525345,-0.0005209050141274929,1.3056413081358187e-05
0.0003192821459379047,0.0001456114259781316,1.3407481674221344e-05
0.0018607390811666846,0.0009893265087157488,1.4107126844464801e-05
0.003237662138417363,0.0017555493395775557,1.462502041249536e-05
0.00451259408146143,0.002510941820219159,1.5151741536101326e-05
0.006059541832655668,0.0035123308189213276,1.594652894709725e-05
0.007678946480154991,0.004559095948934555,1.681297544564586e-05
0.008889873512089252,0.00525343231856823,1.773471012711525e-05
0.009299695491790771,0.0054095033556222916,1.7499962268630043e-05
0.008995559066534042,0.0051979669369757175,1.710312244540546e-05
0.00842903833836317,0.004884347785264254,1.7139145711553283e-05
0.007789039518684149,0.0045407358556985855,1.7101554476539604e-05
0.006877771113067865,0.004017599392682314,1.687394433247391e-05
0.0051898411475121975,0.003025145037099719,1.5965826605679467e-05
0.003071187762543559,0.001813862007111311,1.4753168215975165e-05
0.0011722820345312357,0.0007001818739809096,1.3658588613907341e-05
-0.0006128557724878192,-0.0003950291429646313,1.2748754670610651e-05
-0.0024918774142861366,-0.0015234393067657948,1.1938313946302515e-05
-0.004398006945848465,-0.002629616064950824,1.0954141544061713e-05
-0.006031879223883152,-0.003534819697961211,1.0337349522160366e-05
-0.006972526665776968,-0.004019357264041901,1.0102425221703015e-05
-0.007148165721446276,-0.004103751387447119,9.673017302702647e-06
-0.006915175821632147,-0.004013765603303909,9.784649591892958e-06
-0.006638970226049423,-0.003891026834025979,9.99516669253353e-06
-0.006376937963068485,-0.0037368042394518852,1.0430092515889555e-05
-0.0060844444669783115,-0.0035304345656186342,1.0264490811096039e-05
-0.005782753694802523,-0.003304725745692849,1.0086478141602129e-05
-0.00540093844756484,-0.0030759128276258707,1.0382267646491528e-05
-0.0048463535495102406,-0.0028335396200418472,1.1033033842977602e-05
-0.0041293976828455925,-0.0025106470566242933,1.112210338760633e-05
-0.00331153254956007,-0.0020648702047765255,1.1184234608663246e-05
-0.002516427543014288,-0.0015639052726328373,1.1867441571666859e-05
-0.0018843731377273798,-0.0011071211192756891,1.236761272593867e-05
-0.0012097934959456325,-0.0006829098565503955,1.2555174180306494e-05
-0.00019551113655325025,-0.00017784872034098953,1.3040289559285156e-05
0.0012773438356816769,0.000610565475653857,1.3808667972625699e-05
0.002676792209967971,0.0014407946728169918,1.4035673302714713e-05
0.003956206608563662,0.0022466036025434732,1.501588303653989e-05
0.005589410662651062,0.0032678006682544947,1.5735569832031615e-05
0.007345961406826973,0.004313552752137184,1.68535734701436e-05
0.008664920926094055,0.0051018111407756805,1.775768760126084e-05
0.00907263532280922,0.005401198286563158,1.7749343896866776e-05
0.008864053525030613,0.005285309161990881,1.7825746908783913e-05
0.008474987000226974,0.004989932291209698,1.7319413018412888e-05
0.008003749884665012,0.004663411993533373,1.688483462203294e-05
0.007273715455085039,0.004226157907396555,1.6384565242333338e-05
0.005831781774759293,0.003436662722378969,1.550500928715337e-05
0.003790374146774411,0.0023236272390931845,1.4922153241059277e-05
0.0018001890275627375,0.0011811447329819202,1.4253761037252843e-05
7.066738817229634e-06,5.702305497834459e-05,1.3278028745844495e-05
-0.0018334125634282827,-0.0011137607507407665,1.2459275239962153e-05
-0.0037692778278142214,-0.002300196560099721,1.1398480637581088e-05
-0.005581989418715239,-0.0033491540234535933,1.0428559107822366e-05
-0.006814546883106232,-0.003998005297034979,1.0154069059353787e-05
-0.007203181739896536,-0.004172945395112038,9.775097169040237e-06
-0.006998291239142418,-0.0040592593140900135,9.701217095425818e-06
-0.006693730130791664,-0.0038812407292425632,9.764126843947452e-06
-0.006445209961384535,-0.0036976945120841265,9.710971426102333e-06
-0.006183955818414688,-0.003503985470160842,9.883106940833386e-06
-0.005899747833609581,-0.003277519019320607,1.033270928019192e-05
-0.005549516063183546,-0.0030387514270842075,1.0468857908563223e-05
-0.005015462636947632,-0.002778337337076664,1.0354990081395954e-05
-0.004359054379165173,-0.0024860112462192774,1.044889631884871e-05
-0.00361614185385406,-0.0021076544653624296,1.0372781616752036e-05
-0.002752067521214485,-0.001617557369172573,1.1294553587504197e-05
-0.0020061710383743048,-0.0011699243914335966,1.2070009688613936e-05
-0.0013177437940612435,-0.0007658860413357615,1.2337978660070803e-05
-0.0005082277348265052,-0.00027368517476134,1.2977820915693883e-05
0.0006085406057536602,0.000452593871159479,1.311472624365706e-05
0.0020044450648128986,0.0012879743007943034,1.4009793630975764e-05
0.0033803721889853477,0.002034098608419299,1.4994272532931063e-05
0.00501764751970768,0.0029338093008846045,1.5481322407140397e-05
0.00681278295814991,0.00395993422716856,1.666181196924299e-05
0.0082653583958745,0.004847372882068157,1.750121191435028e-05
0.008960070088505745,0.005325761623680592,1.7813286831369624e-05
0.008972031995654106,0.005354683846235275,1.777759098331444e-05
0.00866742618381977,0.0051204850897192955,1.748153954395093e-05
0.008217609487473965,0.004798188339918852,1.7263424524571747e-05
0.007581844925880432,0.00440915348008275,1.7040545571944676e-05
0.006396367214620113,0.0037383618764579296,1.6087649783003144e-05
0.004522700794041157,0.002684165956452489,1.5211612662824336e-05
0.0024592673871666193,0.0014866827987134457,1.4476570868282579e-05
0.0006591999554075301,0.00037114915903657675,1.3401863725448493e-05
-0.0011344872182235122,-0.0007669363403692842,1.2310581041674595e-05
-0.003075279062613845,-0.001940161339007318,1.1441369679232594e-05
-0.005022811703383923,-0.0030432112980633974,1.0391619980509859e-05
-0.006561898626387119,-0.0038440334610641003,9.641335054766387e-06
-0.007214721757918596,-0.004156230017542839,9.50985213421518e-06
-0.007059826981276274,-0.004119209945201874,9.673720342107117e-06
-0.006732978392392397,-0.004036714322865009,1.0068965821119491e-05
-0.006527299527078867,-0.003974984399974346,9.450077413930558e-06
-0.006279222201555967,-0.003819813719019294,9.642374607210513e-06
-0.005931464955210686,-0.0035621465649455786,1.0091584044857882e-05
-0.005533457268029451,-0.0032910043373703957,1.0306563126505353e-05
-0.005126528441905975,-0.003017327282577753,1.046698889695108e-05
-0.004735514055937529,-0.002720658667385578,1.0845121323654894e-05
-0.004093215800821781,-0.002333506941795349,1.1175794497830793e-05
-0.003173922887071967,-0.0018693566089496017,1.144395355368033e-05
-0.002286054426804185,-0.0014178550336509943,1.1857344361487776e-05
-0.0015149660175666213,-0.0009958003647625446,1.2268452337593772e-05
-0.0007950547151267529,-0.0005512067000381649,1.2868872545368504e-05
0.0001524785184301436,7.948715938255191e-05,1.3029715773882344e-05
0.0014598338166251779,0.0008924054563976824,1.4361781722982414e-05
0.0028946304228156805,0.0017015691846609116,1.5227205039991532e-05
0.004447141196578741,0.00257127801887691,1.5914894902380183e-05
0.006193126086145639,0.0035969058517366648,1.6567453712923452e-05
0.007793065160512924,0.004577653482556343,1.691652141744271e-05
0.008777977898716927,0.00520439725369215,1.746717134665232e-05
0.009037376381456852,0.0053541408851742744,1.8088116121361963e-05
0.008831804618239403,0.005167100112885237,1.7977274183067493e-05
0.008413250558078289,0.004855738021433353,1.7452235624659806e-05
0.007844924926757812,0.004491998348385096,1.731662268866785e-05
0.00691191153600812,0.003963111899793148,1.6631020116619766e-05
0.005238877609372139,0.0030734839383512735,1.5730305676697753e-05
0.003122047521173954,0.0018907699268311262,1.4945478142180946e-05
0.0012925808550789952,0.0007554971380159259,1.383701601298526e-05
-0.00043580474448390305,-0.00034328436595387757,1.2921897905471269e-05
-0.0022944817319512367,-0.0014587764162570238,1.1367824299668428e-05
-0.004385529551655054,-0.002640985883772373,1.0257028407067992e-05
-0.006158614996820688,-0.0036099592689424753,1.0255297638650518e-05
-0.006976102478802204,-0.0040272497572004795,9.930427950166631e-06
-0.0070865279994904995,-0.00403655506670475,9.929646694217809e-06
-0.006948406808078289,-0.003898649476468563,1.0103421118401457e-05
-0.006816287990659475,-0.003805138636380434,1.032260843203403e-05
-0.00647907517850399,-0.003660333575680852,9.929704901878722e-06
-0.006058562081307173,-0.0034523075446486473,1.0391294381406624e-05
-0.005604950711131096,-0.0032095625065267086,1.034655451803701e-05
-0.005243298597633839,-0.0029918435029685497,1.044381770043401e-05
-0.004887351766228676,-0.002753483597189188,1.0570058293524198e-05
-0.00432175025343895,-0.0024338485673069954,1.1261263352935202e-05
-0.0034580426290631294,-0.002015568083152175,1.1770274795708247e-05
-0.002534047467634082,-0.0015658180927857757,1.2016414984827861e-05
-0.001749760820530355,-0.0011420832015573978,1.259357486560475e-05
-0.0010535820620134473,-0.0007147635333240032,1.2710625014733523e-05
-0.00025839233421720564,-0.00020141710410825908,1.2923122085339855e-05
0.0009242946398444474,0.0004970545414835215,1.3560194020101335e-05
0.0023667733184993267,0.0012913448736071587,1.4852585081825964e-05
0.0038978708907961845,0.0021611074917018414,1.5262674423865974e-05
0.005594263318926096,0.003184207482263446,1.6050054910010658e-05
0.00733063044026494,0.004250400234013796,1.7162881704280153e-05
0.00855387095361948,0.0050515178591012955,1.7812795704230666e-05
0.00907742977142334,0.005405201110988855,1.78127102117287e-05
0.00901035126298666,0.005300168879330158,1.801873258955311e-05
0.008646412752568722,0.004994228016585112,1.7223661416210234e-05
0.008146506734192371,0.004664828069508076,1.672384314588271e-05
0.007428644225001335,0.004248499404639006,1.6833742847666144e-05
0.006034360267221928,0.003466646885499358,1.64700613822788e-05
0.00400659441947937,0.0023100050166249275,1.564336707815528e-05
0.001997198909521103,0.0011605304898694158,1.4327242752187885e-05
5.892241824767552e-05,5.5250973673537374e-05,1.3317369848664384e-05
-0.0019087420077994466,-0.0011236893478780985,1.2583656825881917e-05
-0.003825031453743577,-0.002324857283383608,1.1287290362815838e-05
-0.0055779991671442986,-0.003402059432119131,1.00143370218575e-05
-0.006670605391263962,-0.004021044820547104,9.957034308172297e-06
-0.007023338228464127,-0.004123435355722904,9.879695426207036e-06
-0.0070114051923155785,-0.003998767118901014,9.902836609398946e-06
-0.0068725720047950745,-0.003883086144924164,9.921115633915178e-06
-0.006594517268240452,-0.0037667169235646725,1.0031982128566597e-05
-0.006189791951328516,-0.00358232157304883,1.042786880134372e-05
-0.005756341386586428,-0.003348074620589614,1.038979917211691e-05
-0.0053790477104485035,-0.003092912258580327,1.0419413229101337e-05
-0.005051315296441317,-0.0028179080691188574,1.0631658369675279e-05
-0.004559463821351528,-0.002484919037669897,1.1165800970047712e-05
-0.0037682605907320976,-0.002067679539322853,1.1512515811773483e-05
-0.002820190042257309,-0.001582685043103993,1.1895911484316457e-05
-0.0020008948631584644,-0.0011196107370778918,1.239951507159276e-05
-0.001309354673139751,-0.0006725594867020845,1.2500516277214047e-05
-0.0006173691945150495,-0.00018167824600823224,1.2770064131473191e-05
0.0004572192265186459,0.0004966495325788856,1.3261530511954334e-05
0.0019689458422362804,0.0013193616177886724,1.4425172594201285e-05
0.0034419395960867405,0.0020655556581914425,1.5715895642642863e-05
0.004926561377942562,0.00286653614602983,1.552246067149099e-05
0.0067874058149755,0.003930403385311365,1.6232004782068543e-05
0.008343621157109737,0.004831989761441946,1.7188751371577382e-05
0.009136645123362541,0.005282756872475147,1.7835351172834635e-05
0.009152716025710106,0.005301834549754858,1.8045569959213026e-05
0.008606216870248318,0.005048913881182671,1.7127737010014243e-05
0.008069225586950779,0.004750230815261602,1.720857653708663e-05
0.0075313556008040905,0.004358796868473291,1.660501948208548e-05
0.00653488002717495,0.0036944954190403223,1.6458916434203275e-05
0.004762716591358185,0.002617320977151394,1.6043139112298377e-05
0.0026997942477464676,0.001447468064725399,1.4978449144109618e-05
0.0006886442424729466,0.00035424911766313016,1.3701150237466209e-05
-0.0012508375803008676,-0.0007526260451413691,1.2723056897812057e-05
-0.0031322950962930918,-0.0019088084809482098,1.1962829375988804e-05
-0.004921875428408384,-0.003015396883711219,1.0940583706542384e-05
-0.006289424374699593,-0.003821120597422123,1.0163093065784778e-05
-0.006964499596506357,-0.004148999694734812,9.713598046801053e-06
-0.007076564710587263,-0.004102491773664951,9.757239240570925e-06
-0.006951465271413326,-0.003964390605688095,9.92608238448156e-06
-0.006682617124170065,-0.0038235557731240988,1.030160092341248e-05
-0.006320027634501457,-0.0036260769702494144,1.0180471690546256e-05
-0.005908900406211615,-0.003352497471496463,1.0365861271566246e-05
-0.005531263537704945,-0.0030843794811517,1.0439382094773464e-05
-0.005215193144977093,-0.0028391843661665916,1.0380932508269325e-05
-0.0048004621639847755,-0.0025864276103675365,1.0511410437175073e-05
-0.004069902002811432,-0.0022731709759682417,1.1056783478124999e-05
-0.003116999752819538,-0.0018685468239709735,1.1742240531020798e-05
-0.002271837554872036,-0.0014452672330662608,1.175823126686737e-05
-0.0015351225156337023,-0.001017040922306478,1.2601009984791745e-05
-0.000810761412139982,-0.0005764520610682666,1.3166785720386542e-05
0.00021999332238920033,4.5223114284453914e-05,1.3016338925808668e-05
0.0016468416433781385,0.0009159086621366441,1.4176936929288786e-05
0.0028437545988708735,0.0016772602684795856,1.4996114259702154e-05
0.0041620610281825066,0.0024527953937649727,1.5334739146055654e-05
0.005978796165436506,0.0034497843589633703,1.614207576494664e-05
0.00774464150890708,0.004413178190588951,1.6912388673517853e-05
0.008904446847736835,0.005040992051362991,1.7529731849208474e-05
0.009156305342912674,0.005208432674407959,1.781581886461936e-05
0.008763639256358147,0.005048504564911127,1.759278165991418e-05
0.00822492316365242,0.004758851602673531,1.7291918993578292e-05
0.0077359117567539215,0.004427289590239525,1.711308868834749e-05
0.006939004175364971,0.003919709473848343,1.6826976207084954e-05
0.005434783175587654,0.0030500025022774935,1.603745113243349e-05
0.0033938423730432987,0.0019146404229104519,1.5070123481564224e-05
0.001334666507318616,0.0007938515045680106,1.4220164302969351e-05
-0.0005969853955321014,-0.00029963700217194855,1.3343378668650985e-05
-0.002462750766426325,-0.0014354888116940856,1.2192979738756549e-05
-0.004278977867215872,-0.0025625787675380707,1.116155181080103e-05
-0.005857047624886036,-0.0035169613547623158,1.0471840141690336e-05
-0.0068366313353180885,-0.004064605105668306,1.028558017424075e-05
-0.007143782451748848,-0.004140986129641533,1.0149457011721097e-05
-0.0070611871778965,-0.004013457801192999,9.96110884443624e-06
-0.006783910095691681,-0.0038821862544864416,9.859450983640272e-06
-0.006428465712815523,-0.003735749749466777,9.933584806276485e-06
-0.006053274497389793,-0.003545943647623062,9.873931048787199e-06
-0.00562957813963294,-0.003309304593130946,1.0194795322604477e-05
-0.0052489847876131535,-0.0030691202264279127,1.0581969945633318e-05
-0.004840073175728321,-0.002826269716024399,1.0264244338031858e-05
-0.004281164146959782,-0.0024966332130134106,1.1030075256712735e-05
-0.00357981794513762,-0.002015722682699561,1.1787343282776419e-05
-0.002755017252638936,-0.0014969378244131804,1.2414297088980675e-05
-0.0019053409341722727,-0.0010634836507961154,1.2374998732411768e-05
-0.0010756334522739053,-0.0006594271399080753,1.2661790606216528e-05
-9.133661660598591e-05,-0.00012922183668706566,1.2963283552380744e-05
0.001198032172396779,0.0006445868057198822,1.3858117199561093e-05
0.0024559444282203913,0.0014553660294041038,1.4670855307485908e-05
0.003702753223478794,0.0022347008343786,1.489339683757862e-05
0.005350066814571619,0.0031822877936065197,1.5797493688296527e-05
0.007172137498855591,0.004207943100482225,1.7146681784652174e-05
0.008583963848650455,0.005001464858651161,1.830257497204002e-05
0.009147332981228828,0.005327279679477215,1.8166589143220335e-05
0.008930996060371399,0.005223089829087257,1.7615364413359202e-05
0.008408032357692719,0.004914554301649332,1.7091921108658426e-05
0.007931023836135864,0.004579547327011824,1.7147882317658514e-05
0.007302475161850452,0.004154399503022432,1.6925090676522814e-05
0.006072101648896933,0.003416521241888404,1.6367470379918814e-05
0.004114048555493355,0.0023069458547979593,1.5451290892087854e-05
0.0019818944856524467,0.0011570475762709975,1.4142633517622016e-05
6.006785770296119e-05,9.409980702912435e-05,1.3237411621958017e-05
-0.0017735845176503062,-0.001033277832902968,1.2450632311811205e-05
-0.0036052823998034,-0.0021829509641975164,1.1037770491384435e-05
-0.005319568328559399,-0.003205134067684412,1.0172587280976586e-05
-0.006599774118512869,-0.00392961548641324,9.701923772809096e-06
-0.0070424433797597885,-0.0041405255906283855,9.758254236658104e-06
-0.006925695110112429,-0.004047424998134375,9.987299563363194e-06
-0.006798451766371727,-0.003944237716495991,1.0111172741744667e-05
-0.006677014287561178,-0.003807263681665063,9.798833161767107e-06
-0.006405896972864866,-0.003625206183642149,1.0191797628067434e-05
-0.005894650239497423,-0.0033581655006855726,1.0248618309560698e-05
-0.005391266662627459,-0.00308989523909986,1.0201476470683701e-05
-0.004911917261779308,-0.002809304278343916,1.1104904842795804e-05
-0.004437931813299656,-0.0024987640790641308,1.1375950634828769e-05
-0.0038324138149619102,-0.002107272855937481,1.162994340120349e-05
-0.0030386405996978283,-0.0016669777687638998,1.1894621820829343e-05
-0.0021676779724657536,-0.0012430750066414475,1.2432586117938627e-05
-0.0013268513139337301,-0.0008276780135929585,1.3179649613448419e-05
-0.00042230827966704965,-0.00032446032855659723,1.3779403161606751e-05
0.0007735348772257566,0.00040639701182954013,1.4004574950376991e-05
0.002095593372359872,0.0012384853325784206,1.466429512220202e-05
0.0033153980039060116,0.0019675996154546738,1.5299114238587208e-05
0.004727429710328579,0.0027422835119068623,1.59556348080514e-05
0.006528801284730434,0.0037402184680104256,1.659407098486554e-05
0.008152837865054607,0.004670717753469944,1.7321128325420432e-05
0.009058782830834389,0.005216541700065136,1.7944346836884506e-05
0.00904915388673544,0.0052704778499901295,1.756030906108208e-05
0.008563444018363953,0.005021693650633097,1.7326699889963493e-05
0.008107486180961132,0.0046981628984212875,1.7227603166247718e-05
0.007621296681463718,0.004350285977125168,1.701164546830114e-05
0.006731669418513775,0.0038199920672923326,1.6897183741093613e-05
0.004889151081442833,0.0027486979961395264,1.5833207726245746e-05
0.0027408264577388763,0.0015255683101713657,1.4619220564782154e-05
0.0009025753242895007,0.00048538975534029305,1.3536056030716281e-05
-0.0010589135345071554,-0.0006371675990521908,1.2893508937850129e-05
-0.0030678759794682264,-0.001761206891387701,1.1986759091087151e-05
-0.004938248544931412,-0.002853531390428543,1.0988119356625248e-05
-0.00626567006111145,-0.0036984074395149946,1.027802409225842e-05
-0.006908770650625229,-0.004116123076528311,9.824986591411289e-06
-0.006979236379265785,-0.004138284828513861,1.0154856681765523e-05
-0.006882797461003065,-0.004009722266346216,1.0226180165773258e-05
-0.006788711063563824,-0.0038574037607759237,1.0236547495878767e-05
-0.006542169023305178,-0.0036713043227791786,1.0421956176287495e-05
-0.0060865082778036594,-0.003448022296652198,1.0399317943665665e-05
-0.005565048195421696,-0.0031981102656573057,1.0854037100216374e-05
-0.0051023405976593494,-0.0029411013238132,1.1550428098416887e-05
-0.004650351591408253,-0.0026543394196778536,1.1741096386685967e-05
-0.004128172993659973,-0.0023240093141794205,1.1760730558307841e-05
-0.003371785394847393,-0.0019028385868296027,1.184240773000056e-05
-0.0024830440524965525,-0.0014619507128372788,1.2180260455352254e-05
-0.001615016022697091,-0.0010293961968272924,1.2569989848998375e-05
-0.0007820994942449033,-0.0005647835205309093,1.3068720363662578e-05
0.00028989126440137625,0.00010117642523255199,1.3301621947903186e-05
0.0016494517913088202,0.000983973266556859,1.4106462913332507e-05
0.0029467244166880846,0.001788050984032452,1.4831826774752699e-05
0.004202677868306637,0.002477006521075964,1.5121567230380606e-05
0.00591371301561594,0.003424178110435605,1.5803474525455385e-05
0.007657126523554325,0.004446504637598991,1.6693906218279153e-05
0.008926673792302608,0.005217871628701687,1.8008746337727644e-05
0.009256131947040558,0.005419592373073101,1.8230723071610555e-05
0.00888543389737606,0.005199522711336613,1.7773689251043834e-05
0.008352693170309067,0.004917471669614315,1.78319987753639e-05
0.007666118908673525,0.004578758962452412,1.7269754607696086e-05
0.006828339770436287,0.0040670656599104404,1.6623749615973793e-05
0.005363775882869959,0.003098171204328537,1.5755751519463956e-05
0.003456253558397293,0.0018962167669087648,1.4758814359083772e-05
0.0015706317499279976,0.0007537594065070152,1.4218596334103495e-05
-0.0003621351206675172,-0.00035201077116653323,1.3329696230357513e-05
-0.0024215851444751024,-0.0014760901685804129,1.1993362932116725e-05
-0.0043831197544932365,-0.0025690861511975527,1.124320988310501e-05
-0.005921445786952972,-0.003479095408692956,1.0437698620080482e-05
-0.006773792207241058,-0.003994440194219351,9.729933481139597e-06
-0.00697270268574357,-0.00409458065405488,9.741052963363472e-06
-0.0068903472274541855,-0.0039820862002670765,9.856725228019059e-06
-0.006807021331042051,-0.003834860399365425,1.0068619303638116e-05
-0.0066309729591012,-0.003685598960146308,1.0178378033742774e-05
-0.006214969791471958,-0.003502503503113985,1.03912825579755e-05
-0.005694088526070118,-0.0032897861674427986,1.0418952115287539e-05
-0.005226172041147947,-0.003062991891056299,1.0620389730320312e-05
-0.00480657210573554,-0.0028012446127831936,1.1408841601223685e-05
-0.004349861294031143,-0.0024616867303848267,1.1780213753809221e-05
-0.003659373614937067,-0.0020177497062832117,1.1808021554315928e-05
-0.0027149382513016462,-0.0015340803656727076,1.2372842320473865e-05
-0.001817713724449277,-0.0011094131041318178,1.2483025784604251e-05
-0.0010656679514795542,-0.0007178621599450707,1.268010601052083e-05
-0.00018094015831593424,-0.00022469174291472882,1.3395101632340811e-05
0.0011011854512616992,0.0005481322878040373,1.4286287296272349e-05
0.0024604173377156258,0.0013884808868169785,1.5054984942253213e-05
0.003705669194459915,0.002175925299525261,1.5357587471953593e-05
0.005228552035987377,0.003156557446345687,1.6208925444516353e-05
0.006991449277848005,0.0042014955542981625,1.6974599930108525e-05
0.008478893898427486,0.005003635305911303,1.7566626411280595e-05
0.009191791526973248,0.005361003335565329,1.7836053302744403e-05
0.00911085307598114,0.005301337689161301,1.775439886841923e-05
0.008598360233008862,0.005043596960604191,1.7632304661674425e-05
0.007933385670185089,0.004720560275018215,1.723802779451944e-05
0.007183155510574579,0.004290744196623564,1.6802967365947552e-05
0.005992997903376818,0.0035331251565366983,1.6103182133520022e-05
0.0042159659788012505,0.002424436854198575,1.5349442037404515e-05
0.0022707306779921055,0.0012358424719423056,1.4210344488674309e-05
0.0003399867855478078,9.702124953037128e-05,1.3197800399211701e-05
-0.0016919005429372191,-0.0010501324431970716,1.2403726032061968e-05
-0.0037312875501811504,-0.0022016314323991537,1.1465542229416315e-05
-0.005478571634739637,-0.0032262876629829407,1.066497225110652e-05
-0.006603986490517855,-0.003881072625517845,1.0236878551950213e-05
-0.006956714205443859,-0.00405498081818223,9.706895070848987e-06
-0.006880918517708778,-0.003975971601903439,9.447076081414707e-06
-0.006809531711041927,-0.0038801459595561028,9.72240468399832e-06
-0.006700546480715275,-0.003778655081987381,9.786992450244725e-06
-0.006324856076389551,-0.0036078779958188534,1.0029610166384373e-05
-0.005802318453788757,-0.003371584229171276,1.0125557309947908e-05
-0.005353068932890892,-0.003126174211502075,1.033847456710646e-05
-0.0049157096073031425,-0.002855790313333273,1.0749356079031713e-05
-0.004443861544132233,-0.0025510150007903576,1.1015578820661176e-05
-0.00378170283511281,-0.002143648685887456,1.1381856893422082e-05
-0.0029505703132599592,-0.0016339244320988655,1.1674273991957307e-05
-0.002244966570287943,-0.0011714729480445385,1.226254698849516e-05
-0.0015172973508015275,-0.0007540044607594609,1.2927126590511762e-05
-0.0006241754163056612,-0.00031468537054024637,1.3106484402669594e-05
0.0006005176692269742,0.00035430019488558173,1.3720791685045697e-05
0.0019977011252194643,0.0011709189275279641,1.4562561773345806e-05
0.003264918690547347,0.0019374520052224398,1.4944635040592402e-05
0.0046867188066244125,0.00280088372528553,1.5490863006561995e-05
0.006404222920536995,0.003795379539951682,1.6288213373627514e-05
0.008054527454078197,0.0047025298699736595,1.727430753817316e-05
0.009058989584445953,0.0052446057088673115,1.7939051758730784e-05
0.009228329174220562,0.005334320943802595,1.7986227248911746e-05
0.008800039999186993,0.0051183500327169895,1.7802949514589272e-05
0.00814767461270094,0.004801110830157995,1.7546013623359613e-05
0.007454577833414078,0.00441000796854496,1.6944686649367213e-05
0.006510747596621513,0.0037806369364261627,1.6254849469987676e-05
0.004925793502479792,0.0027610722463577986,1.5564137356705032e-05
0.0029305750504136086,0.001565218553878367,1.4650907360191923e-05
0.0009909523651003838,0.000460852577816695,1.393477214151062e-05
-0.0010066492250189185,-0.0006329171010293067,1.2941583008796442e-05
-0.0030587133951485157,-0.0017948324093595147,1.165506455436116e-05
-0.004910831805318594,-0.0029488748405128717,1.0482469406269956e-05
-0.006309862714260817,-0.0038537485525012016,1.0300032954546623e-05
-0.00693358201533556,-0.0042344145476818085,9.872674127109349e-06
-0.0069132172502577305,-0.004182587843388319,9.620023774914443e-06
-0.006758715491741896,-0.004018333274871111,1.0107074558618478e-05
-0.006617540493607521,-0.0038796979933977127,1.0297065273334738e-05
-0.006401433609426022,-0.003712948178872466,1.0216069313173648e-05
-0.006127237807959318,-0.003507639979943633,1.0233805369352922e-05
-0.005728225689381361,-0.0032801004126667976,1.0966638001264073e-05
-0.005201905500143766,-0.003028727136552334,1.105501996789826e-05
-0.004633116070181131,-0.0027244172524660826,1.1091720807598904e-05
-0.003966457676142454,-0.0023463901598006487,1.127436917158775e-05
-0.0032168810721486807,-0.0019122306257486343,1.2001682080153842e-05
-0.0025156515184789896,-0.0014989302726462483,1.2629556294996291e-05
-0.0018004694720730186,-0.001109947101213038,1.2565803444886114e-05
-0.0009374323417432606,-0.0006703407852910459,1.2757354852510616e-05
0.00019622992840595543,-6.079833838157356e-05,1.3671066881215665e-05
0.001578856143169105,0.000725763151422143,1.4583632037101779e-05
0.0028705219738185406,0.0015054696705192327,1.4881056813464966e-05
0.004121061880141497,0.0023169757332652807,1.5349314708146267e-05
0.005715652834624052,0.003301569726318121,1.6062876966316253e-05
0.007501027546823025,0.004301166627556086,1.7057162040146068e-05
0.008812752552330494,0.0049937404692173,1.7577096514287405e-05
0.009264077991247177,0.005242600571364164,1.7353069779346697e-05
0.008972582407295704,0.0051168762147426605,1.7605572793399915e-05
0.00833651889115572,0.004821302834898233,1.7536081941216253e-05
0.0076819839887320995,0.004466611426323652,1.699827771517448e-05
0.00697416951879859,0.003986659925431013,1.6853606211952865e-05
0.005629316903650761,0.003125365125015378,1.6278145267278887e-05
0.003677000990137458,0.001978273270651698,1.4719157661602367e-05
0.0016873955028131604,0.0008454512571915984,1.3911968380853068e-05
-0.0002357533376198262,-0.00024735613260418177,1.314467499469174e-05
-0.0021901538129895926,-0.001378069631755352,1.1954606634390075e-05
-0.004213766194880009,-0.0025286043528467417,1.1467132935649715e-05
-0.005984331946820021,-0.003477275837212801,1.0384103006799705e-05
-0.006975829601287842,-0.004000435583293438,1.0274334272253327e-05
-0.007073108106851578,-0.004063677508383989,9.753985068527982e-06
-0.006857964675873518,-0.003960319794714451,9.988197234633844e-06
-0.006650799419730902,-0.0038486940320581198,9.870605026662815e-06
-0.006485946010798216,-0.003717262065038085,9.893239621305838e-06
-0.006265429779887199,-0.00350940297357738,1.0307834600098431e-05
-0.005892331246286631,-0.0032549176830798388,1.035170498653315e-05
-0.0053805760107934475,-0.003000485710799694,1.046763554768404e-05
-0.004817873705178499,-0.002726125530898571,1.0639537322276738e-05
-0.0042045689187943935,-0.0023830935824662447,1.1417317182349507e-05
-0.003498187055811286,-0.0019354454707354307,1.1802957487816457e-05
-0.002788735320791602,-0.0014600567519664764,1.2265428267710377e-05
-0.002065602457150817,-0.0010210585314780474,1.2347567462711595e-05
-0.001226081163622439,-0.0005932915373705328,1.2680802683462389e-05
-0.00016488879919052124,-6.867417687317356e-05,1.2991777111892588e-05
0.0011832054005935788,0.0006442267331294715,1.347909255855484e-05
0.002585452515631914,0.0014585278695449233,1.4447370631387457e-05
0.003749916097149253,0.0022277755197137594,1.5562352928100154e-05
0.005185697693377733,0.0031358154956251383,1.577536022523418e-05
0.007059953641146421,0.004189887549728155,1.654620973567944e-05
0.008664574474096298,0.00504720862954855,1.734315446810797e-05
0.009400713257491589,0.005428927950561047,1.7548045434523374e-05
0.00926260557025671,0.005344322882592678,1.7384190869051963e-05
0.008705230429768562,0.005080563947558403,1.7234176993952133e-05
0.008106149733066559,0.004770385101437569,1.7044478227035142e-05
0.007392527535557747,0.004347686655819416,1.717628947517369e-05
0.006060883402824402,0.003585660131648183,1.6104720998555422e-05
0.0041295248083770275,0.002421833109110594,1.4986258975113742e-05
0.0022581492085009813,0.0012591929407790303,1.4112154531176202e-05
0.00047010777052491903,0.00016489179688505828,1.3255884368845727e-05
-0.0014369795098900795,-0.0009692833991721272,1.2730062735499814e-05
-0.0034731756895780563,-0.002114399801939726,1.1582897968764883e-05
-0.005409128498286009,-0.003159663639962673,1.0739266144810244e-05
-0.006683703977614641,-0.003856971859931946,1.0024479706771672e-05
-0.007060091942548752,-0.004094159696251154,9.767318260855973e-06
-0.006910145748406649,-0.004035663791000843,9.851374670688529e-06
-0.006706038024276495,-0.003920894581824541,1.0101649422722403e-05
-0.0065722595900297165,-0.0037951574195176363,1.0168407243327238e-05
-0.006413465365767479,-0.0036292264703661203,1.0310064681107178e-05
-0.006072584539651871,-0.0034027304500341415,1.0169303095608484e-05
-0.00555996410548687,-0.0031552084255963564,1.0400149221823085e-05
-0.005004319828003645,-0.0029020721558481455,1.0580788512015715e-05
-0.004450914915651083,-0.002623184584081173,1.1031961548724212e-05
-0.0038081356324255466,-0.002248138189315796,1.1243922017456498e-05
-0.003099784255027771,-0.001775275100953877,1.1767033356591128e-05
-0.0023764660581946373,-0.0013082592049613595,1.2388731192913838e-05
-0.0015543779591098428,-0.0008894581696949899,1.2144982065365184e-05
-0.0006246507982723415,-0.00045143812894821167,1.2378507562971208e-05
0.0005184708279557526,0.00015769264427945018,1.27693501781323e-05
0.0020073417108505964,0.0010345125338062644,1.4181363440002315e-05
0.0032482859678566456,0.001823124592192471,1.520236492069671e-05
0.004588621202856302,0.0026808755937963724,1.553523361508269e-05
0.006377099547535181,0.003788611153140664,1.6695363228791393e-05
0.0078773507848382,0.004711883142590523,1.7245114577235654e-05
0.008834523148834705,0.005253523122519255,1.7296140867983922e-05
0.009061018005013466,0.005304805934429169,1.7487825971329585e-05
0.008782089687883854,0.005077344365417957,1.789306952559855e-05
0.008269215002655983,0.004756488371640444,1.7716414731694385e-05
0.0075931064784526825,0.004403118509799242,1.7270980606554076e-05
0.0064553627744317055,0.0038047218695282936,1.653674553381279e-05
0.00472974730655551,0.002786809578537941,1.56351179612102e-05
0.0028335258830338717,0.001599092734977603,1.4250842468754854e-05
0.0010203568963333964,0.00048593743122182786,1.3483225302479696e-05
-0.000837098341435194,-0.0006046094349585474,1.2680068721238058e-05
-0.002850254764780402,-0.0017477739602327347,1.1702978554239962e-05
-0.004850280936807394,-0.002855304628610611,1.0881822163355537e-05
-0.00640529440715909,-0.0037199584767222404,1.0280191418132745e-05
-0.007073573302477598,-0.0041179656982421875,1.0210036634816788e-05
-0.007033159956336021,-0.004117325413972139,1.0170726454816759e-05
-0.006801302079111338,-0.003986315336078405,9.993334060709458e-06
-0.006658324506133795,-0.0038940615486353636,1.0191232831857633e-05
-0.006531188264489174,-0.0037772185169160366,1.0235056834062561e-05
-0.006252375431358814,-0.003570917993783951,9.969389793695882e-06
-0.005734600126743317,-0.0032918155193328857,1.0496431059436873e-05
-0.005175441969186068,-0.003018333110958338,1.0329545148124453e-05
-0.004665905609726906,-0.002733757719397545,1.0471660061739385e-05
-0.004050264600664377,-0.0023278086446225643,1.092739239538787e-05
-0.00325634959153831,-0.0017873415490612388,1.175599481939571e-05
-0.00246083689853549,-0.0012832884676754475,1.1723623174475506e-05
-0.0017475809436291456,-0.000868090835865587,1.2276756024220958e-05
-0.0010969091672450304,-0.00047358268056996167,1.2963609151483979e-05
-9.591652633389458e-05,9.785954898688942e-05,1.3565280823968351e-05
0.001397227868437767,0.0008921817061491311,1.4260611351346597e-05
0.0028221651446074247,0.0016590813174843788,1.4855043446004856e-05
0.00418049143627286,0.0024453236255794764,1.555629751237575e-05
0.005785733461380005,0.0034626813139766455,1.633759165997617e-05
0.0073715378530323505,0.004487516824156046,1.701671862974763e-05
0.008554086089134216,0.005174401216208935,1.725143192743417e-05
0.009081647731363773,0.00537371588870883,1.7657564967521466e-05
0.008969071321189404,0.005204580724239349,1.775477903720457e-05
0.008506771177053452,0.004890433046966791,1.754999721015338e-05
0.007864652201533318,0.004531342536211014,1.6972086086752824e-05
0.0069205560721457005,0.004033153411000967,1.6579055227339268e-05
0.005434964783489704,0.003183887805789709,1.579321178724058e-05
0.003562739584594965,0.002039538463577628,1.5058691133162938e-05
0.0017061138059943914,0.0009005542378872633,1.4407319213205483e-05
-0.00010803394980030134,-0.0001781320752343163,1.323816195508698e-05
-0.00208999658934772,-0.0013328937347978354,1.1902964615728706e-05
-0.004162290133535862,-0.002500298200175166,1.1048846317862626e-05
-0.005966607481241226,-0.003523108549416065,1.0320898581994697e-05
-0.006921269465237856,-0.004108519293367863,9.804711226024665e-06
-0.006997447926551104,-0.004182599019259214,9.65686467679916e-06
-0.0067777191288769245,-0.004034570883959532,9.487430361332372e-06
-0.006613908801227808,-0.003897292073816061,9.902435522235464e-06
-0.006453343667089939,-0.003752685384824872,1.0486227438377682e-05
-0.006151445209980011,-0.003562841098755598,1.0332411875424441e-05
-0.00576147623360157,-0.0033356479834765196,1.0463218131917529e-05
-0.005440311040729284,-0.0030920314602553844,1.085489657270955e-05
-0.0050029451958835125,-0.0028174228500574827,1.1160957910760771e-05
-0.004334423691034317,-0.002490569371730089,1.123962920246413e-05
-0.003482398809865117,-0.0020651172380894423,1.1478141459519975e-05
-0.0026249384973198175,-0.0016085637034848332,1.1975206689385232e-05
-0.0019245542353019118,-0.001192030729725957,1.2683557542914059e-05
-0.001300545991398394,-0.0007790325325913727,1.28994452097686e-05
-0.00043925849604420364,-0.00026350736152380705,1.3291070899867918e-05
0.0008985315798781812,0.000469964521471411,1.3898356883146334e-05
0.0023656892590224743,0.0012783030979335308,1.4583394658984616e-05
