0.0013174935011193156,-0.0017132785869762301,0.0006625842652283609
0.0010417180601507425,-0.0015018709236755967,0.0005693765124306083
0.000560745713301003,-0.0011597180273383856,0.00041643495205789804
-2.021689579123631e-05,-0.0007825244101695716,0.00025179635849781334
-0.000484070013044402,-0.0004277357365936041,0.00011230735253775492
-0.0007495227619074285,-4.379954043542966e-05,-2.595585465314798e-05
-0.0010045436210930347,0.0003908642684109509,-0.00018872103828471154
-0.0013745338656008244,0.0008625314803794026,-0.00037573117879219353
-0.0017117662355303764,0.0012851865030825138,-0.0005419967928901315
-0.0018236346077173948,0.0014940107939764857,-0.0006228710990399122
-0.0017428001156076789,0.0015585150104016066,-0.0006482213502749801
-0.0016884084325283766,0.0016216200310736895,-0.0006780866533517838
-0.0017417521448805928,0.0016860900213941932,-0.0007129640434868634
-0.0016288295155391097,0.001675632200203836,-0.0007034321897663176
-0.0012928410433232784,0.0015687714330852032,-0.0006426637410186231
-0.0009960605530068278,0.0014625205658376217,-0.0005835176561959088
-0.00078950310125947,0.0013558703940361738,-0.0005346675752662122
-0.0006739827222190797,0.0012207377003505826,-0.00047923289821483195
-0.0005535500822588801,0.0010043107904493809,-0.00038208250771276653
-0.0003047515347134322,0.0007462791982106864,-0.00025510494015179574
5.521047205547802e-05,0.0005034938221797347,-0.00013298157136887312
0.0003814167284872383,0.0002712486020755023,-2.1444859157782048e-05
0.0006121498299762607,3.6051969800610095e-05,8.290042023872957e-05
0.0007285479223355651,-0.00020196301920805126,0.00017899244267027825
0.0007702690199948847,-0.0004372754483483732,0.0002705524384509772
0.0009174250299111009,-0.0006916899001225829,0.0003666740085463971
0.0012903606984764338,-0.001004998106509447,0.0004833580751437694
0.0017359787598252296,-0.001381037523970008,0.0006242839735932648
0.0019969104323536158,-0.0016919027548283339,0.0007324074977077544
0.0019720839336514473,-0.001840120181441307,0.0007648952305316925
0.0016944525996223092,-0.0018483560997992754,0.0007378203445114195
0.0014486550353467464,-0.0018258916679769754,0.0007107624551281333
0.0014248654479160905,-0.0018164963694289327,0.0007064688252285123
0.0014032715698704123,-0.0017623736057430506,0.0006847773329354823
0.0011972473002970219,-0.0016108400886878371,0.0006196503527462482
0.0007733331294730306,-0.00129370775539428,0.00047636101953685284
0.0002711680135689676,-0.0009125670767389238,0.0003099533205386251
-0.00012338072701822966,-0.0005784365930594504,0.0001785050699254498
-0.0005622273311018944,-0.00018576726142782718,2.453152228554245e-05
-0.0011116709792986512,0.00026573846116662025,-0.00015709870785940439
-0.0015703156823292375,0.0007541060913354158,-0.00034651451278477907
-0.0017838648054748774,0.0011785344686359167,-0.0005045753787271678
-0.0018018792616203427,0.0014291267143562436,-0.0005942092393524945
-0.0017158627742901444,0.0015295869670808315,-0.0006274112965911627
-0.0016976760234683752,0.0015900677535682917,-0.000657997268717736
-0.0017655602423474193,0.0016633551567792892,-0.0006996516603976488
-0.0016880212351679802,0.001681797788478434,-0.0007091739098541439
-0.0013858909951522946,0.0016081423964351416,-0.0006655759061686695
-0.0010674449149519205,0.0014977456303313375,-0.0006013684323988855
-0.0008565470343455672,0.0013953008456155658,-0.0005503692664206028
-0.0007445506635122001,0.0012741999235004187,-0.0005071138148196042
-0.0006498126895166934,0.0010873868595808744,-0.00043426163028925657
-0.00041663023876026273,0.0008263843483291566,-0.00030896830139681697
-4.154280395596288e-05,0.0005665763164870441,-0.0001721435401123017
0.0003099245950579643,0.00033658850588835776,-5.7930716138798743e-05
0.0005490384064614773,0.00011042760161217302,4.346361674834043e-05
0.0006878990097902715,-0.00012007861369056627,0.0001421046326868236
0.0007211157935671508,-0.00034885189961642027,0.00023806834360584617
0.00083663419354707,-0.0005969304475001991,0.0003416892432142049
0.0011967545142397285,-0.0008925748988986015,0.0004539790388662368
0.0016683966387063265,-0.0012704096734523773,0.0005909458850510418
0.0019911546260118484,-0.0016203937120735645,0.0007160867098718882
0.0020675966516137123,-0.0018268255516886711,0.0007773673278279603
0.0019232305930927396,-0.0018769577145576477,0.0007685155142098665
0.0017457400681450963,-0.0018692805897444487,0.000741229101549834
0.00155235908459872,-0.0018504754407331347,0.0007177882362157106
0.0012316410429775715,-0.0017690873937681317,0.0006698141805827618
0.0009657128248363733,-0.0016289353370666504,0.0006050867377780378
0.0007391001563519239,-0.0013770547229796648,0.000500925350934267
0.000417512928834185,-0.0010394376004114747,0.00036204970092512667
5.642550240736455e-05,-0.0006968388333916664,0.00022734519734513015
-0.00040656307828612626,-0.0003180793428327888,8.10359269962646e-05
-0.0009629919077269733,0.00012208044063299894,-9.423643496120349e-05
-0.0014290629187598825,0.0005977688124403358,-0.00028004046180285513
-0.0016908275429159403,0.0010470477864146233,-0.00044914890895597637
-0.0017789271660149097,0.0013628239976242185,-0.0005652245017699897
-0.0017474869964644313,0.0015135403955355287,-0.0006206966936588287
-0.0017234091646969318,0.0015848727198317647,-0.0006536670844070613
-0.0017785013187676668,0.001657161395996809,-0.0006940938183106482
-0.001745407236739993,0.0016967208357527852,-0.0007163992268033326
-0.0014738632598891854,0.0016413339180871844,-0.0006836570682935417
-0.0011274354765191674,0.0015287011628970504,-0.0006186828250065446
-0.0008942260756157339,0.0014265697682276368,-0.0005648509250022471
-0.0007726174080744386,0.0013296924298629165,-0.0005243492196314037
-0.0007192947086878121,0.0011880559613928199,-0.0004663772415369749
-0.0005232937983237207,0.0009459921275265515,-0.0003497155266813934
-0.00010974251927109435,0.000660994031932205,-0.00020313974528107792
0.00026855600299313664,0.0004212900821585208,-8.819366485113278e-05
0.0005052328342571855,0.0001980191736947745,8.612412784714252e-06
0.0006930232630111277,-4.446705861482769e-05,0.00011726876255124807
0.0008397261262871325,-0.0002908024180214852,0.00022740710119251162
0.0010136005003005266,-0.0005407331045717001,0.0003306755388621241
0.0011864928528666496,-0.0008053657365962863,0.0004246327735017985
0.001331613282673061,-0.0011246834183111787,0.0005296047893352807
0.0016113115707412362,-0.0014856216730549932,0.0006622338551096618
0.0019002241315320134,-0.0017461347160860896,0.00075615628156811
0.0019779999274760485,-0.0018566482467576861,0.0007804494234733284
0.0018767258152365685,-0.001873318338766694,0.0007636792724952102
0.0016380787128582597,-0.0018533071270212531,0.000732928398065269
0.0013134009204804897,-0.0017923418199643493,0.0006868178024888039
0.0010533449240028858,-0.0016799140721559525,0.0006309082382358611
0.0008572229999117553,-0.0014725764049217105,0.0005479500396177173
0.0005688091041520238,-0.0011539272964000702,0.0004194274079054594
0.00019473169231787324,-0.0008041582186706364,0.000277397659374401
-0.00026358256582170725,-0.00043989112600684166,0.0001275744434678927
-0.0008111575152724981,-2.2950202037463896e-05,-4.396332587930374e-05
-0.0012952798279002309,0.00044332246761769056,-0.00022612293832935393
-0.0015878184931352735,0.000907718378584832,-0.00039517058758065104
-0.0017358658369630575,0.0012865419266745448,-0.0005337580223567784
-0.001760966726578772,0.0014891921309754252,-0.0006100627942942083
-0.0017314257565885782,0.0015671459259465337,-0.000645491061732173
-0.0017911097966134548,0.001630843267776072,-0.0006821643910370767
-0.0018027869518846273,0.0016926811076700687,-0.0007099935319274664
-0.0015407797181978822,0.0016678755637258291,-0.0006846229662187397
-0.0011745578376576304,0.0015604023355990648,-0.0006232575397007167
-0.0009401438874192536,0.0014560895506292582,-0.0005785951507277787
-0.0007799501763656735,0.0013577848440036178,-0.0005423581460490823
-0.000637028890196234,0.0012246230617165565,-0.00048185946070589125
-0.00038433002191595733,0.00098691345192492,-0.0003658678033389151
-0.0001246660394826904,0.0007108860299922526,-0.00023805227829143405
-4.281901055946946e-05,0.0005032849148847163,-0.00015532643010374159
0.00013790573575533926,0.00028527359245344996,-5.9792444517370313e-05
0.0004799477173946798,3.736572398338467e-05,6.356324593070894e-05
0.0007890935521572828,-0.00021924832253716886,0.00018954912957269698
0.001018878654576838,-0.00047755695413798094,0.00030348237487487495
0.001137463143095374,-0.000725473219063133,0.0003905590856447816
0.0012417322723194957,-0.001015394926071167,0.0004839997855015099
0.0015023455489426851,-0.0013693697983399034,0.0006098815938457847
0.0018384375143796206,-0.0016792661044746637,0.0007239928236231208
0.001991670113056898,-0.001839941367506981,0.0007692814688198268
0.001921554678119719,-0.0018792868359014392,0.0007600011304020882
0.0016938421176746488,-0.0018656083848327398,0.0007318345014937222
0.0013752613449469209,-0.0018232498550787568,0.0006957395235076547
0.00110809993930161,-0.0017358607146888971,0.0006479184376075864
0.0009453945094719529,-0.0015704567776992917,0.000578206789214164
0.0006990330875851214,-0.001280236872844398,0.00045912835048511624
0.0003100188623648137,-0.000919648096896708,0.00031086639501154423
-0.00013346970081329346,-0.0005625897319987416,0.0001714434038149193
-0.0006828983896411955,-0.0001626832818146795,1.6473039067932405e-05
-0.0011957407696172595,0.00028980348724871874,-0.00015688563871663064
-0.0014923465205356479,0.0007555580814369023,-0.0003303894482087344
-0.001682447618804872,0.0011890230234712362,-0.0004966165870428085
-0.0017643477767705917,0.0014501195400953293,-0.0005980873829685152
-0.0017055162461474538,0.0015427437610924244,-0.0006309912423603237
-0.0016463767969980836,0.0015973926056176424,-0.0006554988212883472
-0.0015920712612569332,0.0016633267514407635,-0.0006920992746017873
-0.0015227460535243154,0.0016776833217591047,-0.0007069395505823195
-0.0014755746815353632,0.0016185896238312125,-0.0006820333073846996
-0.0012988136149942875,0.001528451801277697,-0.0006303091649897397
-0.000977962976321578,0.0014148007612675428,-0.0005671827238984406
-0.0006802091374993324,0.0012785387225449085,-0.0004988369182683527
-0.0003997097664978355,0.0010659841354936361,-0.0003971208934672177
-0.00019185269775334746,0.0008058295352384448,-0.00027691919240169227
-9.305660933023319e-05,0.000580738065764308,-0.00017920300888363272
8.004117989912629e-05,0.00036807823926210403,-8.3857165009249e-05
0.0004080470243934542,0.00012420190614648163,3.208014095434919e-05
0.0007281354046426713,-0.00013514897727873176,0.00015044797328300774
0.0009588144603185356,-0.0003938924928661436,0.00025903864298015833
0.0010857522720471025,-0.0006417447584681213,0.0003523437771946192
0.0011738149914890528,-0.0009093292756006122,0.00044341525062918663
0.0014062152476981282,-0.0012493649264797568,0.0005646505742333829
0.001782899023965001,-0.0016005394281819463,0.0006973703275434673
0.00201326422393322,-0.00181837088894099,0.0007682538707740605
0.0019734937231987715,-0.001879187417216599,0.0007648264290764928
0.0017645321786403656,-0.001869440427981317,0.0007336856797337532
0.0014424832770600915,-0.0018324705306440592,0.0007026125094853342
0.0011682829353958368,-0.0017585685709491372,0.0006727951695211232
0.0010552369058132172,-0.0016304270830005407,0.0006292131147347391
0.0008642787579447031,-0.0013847817899659276,0.0005282037891447544
0.00048156562843360007,-0.0010395200224593282,0.0003766817972064018
7.082821684889495e-05,-0.0006913919933140278,0.00023253718973137438
-0.00035997541272081435,-0.0003174763114657253,8.34604143165052e-05
-0.0007927149999886751,0.00010738382843555883,-8.356404578080401e-05
-0.0012777141528204083,0.0005850741290487349,-0.0002710536646191031
-0.0018179810140281916,0.0010723050218075514,-0.00047007936518639326
-0.0020463839173316956,0.0013996661873534322,-0.0006015748949721456
-0.0018853427609428763,0.0015173618448898196,-0.0006430673529393971
-0.00166855298448354,0.001564724720083177,-0.0006542093469761312
-0.0015444146702066064,0.001617939560674131,-0.0006754260393790901
-0.0015316430944949389,0.001659021945670247,-0.0006995279691182077
-0.0015251787845045328,0.0016325138276442885,-0.0006928626098670065
-0.0013679179828613997,0.0015462894225493073,-0.0006474825786426663
-0.0010563998948782682,0.0014338657492771745,-0.0005816865595988929
-0.0007520622457377613,0.001305603189393878,-0.0005148954223841429
-0.0004929315182380378,0.0011255750432610512,-0.00043238612124696374
-0.0002834174665622413,0.000882360094692558,-0.00032371279667131603
-0.0001631766208447516,0.0006433853995986283,-0.00021694313909392804
-1.1842767889902461e-05,0.0004270374483894557,-0.00011978871771134436
0.0002997837436851114,0.00019022768537979573,-6.659923201368656e-06
0.0006437813281081617,-6.576978194061667e-05,0.00011734419967979193
0.0008807603153400123,-0.00031570703140459955,0.0002321133652003482
0.0010225075529888272,-0.000563602545298636,0.0003331111802253872
0.0010751206427812576,-0.0008093580836430192,0.0004173773340880871
0.0012617630418390036,-0.0011249544331803918,0.000525701732840389
0.0016963891685009003,-0.0015037278644740582,0.0006696806522086263
0.0020281800534576178,-0.001777926809154451,0.0007704113377258182
0.0020451999735087156,-0.0018723165849223733,0.0007866578525863588
0.0018872314831241965,-0.001877284375950694,0.0007598428637720644
0.0016740391729399562,-0.0018616587622091174,0.0007346754427999258
0.001481991377659142,-0.0018176481826230884,0.0007098055793903768
0.001216710894368589,-0.0017040575621649623,0.0006553673301823437
0.00075518962694332,-0.0014651082456111908,0.000542671768926084
0.000300106214126572,-0.0011179926805198193,0.0003917250141967088
2.9980325052747503e-05,-0.0007828982197679579,0.0002622073225211352
-0.0002367843990214169,-0.00043861003359779716,0.00013279536506161094
-0.0006035125115886331,-3.460814696154557e-05,-2.467633385094814e-05
-0.001109008677303791,0.00043102644849568605,-0.00020937544468324631
-0.0016764738829806447,0.0009311386966146529,-0.0004079744394402951
-0.0019935425370931625,0.0013210896868258715,-0.0005581011064350605
-0.0019232404883950949,0.0015094778500497341,-0.0006240582442842424
-0.0017042980762198567,0.0015698407078161836,-0.0006455006659962237
-0.0015607425011694431,0.0016169940354302526,-0.0006713250186294317
-0.0015430744970217347,0.0016673130448907614,-0.000703129218891263
-0.0015630201669409871,0.0016680880216881633,-0.0007101277005858719
-0.0014382972149178386,0.0015937923453748226,-0.0006725586717948318
-0.001128865871578455,0.0014824175741523504,-0.0006096489960327744
-0.0008034952916204929,0.001361747388727963,-0.0005467250011861324
-0.0005613603279925883,0.0012111396063119173,-0.00047672828077338636
-0.00035350193502381444,0.0009848254267126322,-0.0003719984961207956
-0.00022697009262628853,0.0007268883055076003,-0.000251158548053354
-8.740711928112432e-05,0.0005053359200246632,-0.00014751464186701924
0.00023922092805150896,0.0002768597914837301,-3.642847150331363e-05
0.000608070578891784,2.350141767237801e-05,8.543374860892072e-05
0.0008448606822639704,-0.00021293981990311295,0.00018993319827131927
0.001037874724715948,-0.0004694238305091858,0.00030139743466861546
0.0011930770706385374,-0.0007222986314445734,0.00039916267269290984
0.0014216207200661302,-0.0010234819492325187,0.0005008037551306188
0.0016925777308642864,-0.0013998191570863128,0.0006319806561805308
0.0017570488853380084,-0.0016747211338952184,0.0007157994550652802
0.0017517349915578961,-0.0018045471515506506,0.00074266322189942
0.0017813460435718298,-0.0018504932522773743,0.0007437012391164899
0.001746881171129644,-0.0018632819410413504,0.000734182249289006
0.00161318841855973,-0.0018384160939604044,0.0007096503977663815
0.0013195169158279896,-0.0017423245590180159,0.0006585797527804971
0.0008720448822714388,-0.0015389503678306937,0.0005681044422090054
0.000434447341831401,-0.0012256447225809097,0.00043669797014445066
0.0001433283614460379,-0.0008879397646524012,0.00030195139697752893
-0.00011217327119084075,-0.0005540110287256539,0.0001732232776703313
-0.00046006598859094083,-0.00017677577852737159,2.6455672923475504e-05
-0.0009478009887970984,0.0002735268499236554,-0.0001516880001872778
-0.0015220263740047812,0.0007709888159297407,-0.00034894622513093054
-0.0019296257523819804,0.0012096164282411337,-0.0005187909700907767
-0.0019506410462781787,0.0014589536003768444,-0.0006079206359572709
-0.001748224371112883,0.0015428091865032911,-0.0006315794307738543
-0.001594990841113031,0.0015874457312747836,-0.0006465672049671412
-0.0015672545414417982,0.0016483990475535393,-0.000675858580507338
-0.001624996424652636,0.0016815531998872757,-0.0006968200905248523
-0.0015376718947663903,0.001622628653421998,-0.0006720985984429717
-0.0012038395507261157,0.0015017380937933922,-0.0006087844376452267
-0.0008562770672142506,0.001379441237077117,-0.0005452876794151962
-0.000637860270217061,0.0012608233373612165,-0.0004911273717880249
-0.0003997885505668819,0.0010522500379011035,-0.000397233001422137
-0.0001370429090457037,0.0007712069200351834,-0.0002629410882946104
8.005743438843638e-05,0.0005424089613370597,-0.00015327158325817436
0.0002364272077102214,0.0003395302046556026,-6.419776036636904e-05
0.00030264974338933825,0.00012946719652973115,2.575940015958622e-05
0.0004861632187385112,-0.00010346389899495989,0.00013604603009298444
0.0008284228388220072,-0.0003705816634465009,0.0002627703361213207
0.001139563275501132,-0.0006412325892597437,0.00037362848524935544
0.0014040855458006263,-0.0009369485778734088,0.0004768611688632518
0.0016178223304450512,-0.0012879037531092763,0.0005925563164055347
0.0017108425963670015,-0.0015990748070180416,0.0006904734182171524
0.001746280468069017,-0.0017805551178753376,0.0007408087840303779
0.0017966408049687743,-0.0018503159517422318,0.0007570037851110101
0.001781254424713552,-0.0018623443320393562,0.0007522908854298294
0.001663028378970921,-0.0018479330465197563,0.0007337334682233632
0.0013978607021272182,-0.001775937038473785,0.0006893540848977864
0.0009881313890218735,-0.0016121993539854884,0.0006060972227714956
0.0005617615533992648,-0.0013401936739683151,0.0004811772087123245
0.00025471008848398924,-0.001008349470794201,0.0003449031210038811
2.6226725822198205e-06,-0.0006771223270334303,0.00022128464479465038
-0.0003319215611554682,-0.00031756897806189954,8.688996604178101e-05
-0.000800829438958317,0.00011731096310541034,-8.318618347402662e-05
-0.001391101977787912,0.0006117199664004147,-0.0002788058191072196
-0.0018778968369588256,0.0010979960206896067,-0.00046668347204104066
-0.0019636519718915224,0.001414684345945716,-0.0005804625106975436
-0.0017736813751980662,0.0015262633096426725,-0.0006141455378383398
-0.0016287014586851,0.0015674441820010543,-0.0006372705684043467
-0.001598011120222509,0.0016288732877001166,-0.000681348901707679
-0.001595118548721075,0.0016772040398791432,-0.0007189634488895535
-0.0014587477780878544,0.0016313230153173208,-0.0007014606380835176
-0.001295287860557437,0.0015405860031023622,-0.000652062997687608
-0.001250719535164535,0.0014592621009796858,-0.0006131670088507235
-0.0010905686067417264,0.0013504704693332314,-0.0005635219858959317
-0.0007129987934604287,0.00115274079144001,-0.00046766706509515643
-0.0002979976707138121,0.0008744813967496157,-0.00032989063765853643
8.342377441294957e-06,0.0006178234471008182,-0.00019929910195060074
0.0001431252167094499,0.00041079940274357796,-9.980089089367539e-05
0.0001968078431673348,0.00020357189350761473,-1.2097316357539967e-05
0.00036157501745037735,-2.8865521016996354e-05,8.960618288256228e-05
0.0006939776358194649,-0.0002890876494348049,0.00021552907128352672
0.0010247820755466819,-0.0005552766961045563,0.00033677209285087883
0.0012855131644755602,-0.0008345076930709183,0.00043923186603933573
0.0014906743308529258,-0.001161880325525999,0.0005453036283142865
0.0016257286770269275,-0.0014967636670917273,0.0006558330496773124
0.0017184395110234618,-0.0017325124936178327,0.0007308462518267334
0.0018157224403694272,-0.0018398036481812596,0.0007549625006504357
0.0018351188628003001,-0.0018660963978618383,0.0007453476428054273
0.0017266174545511603,-0.0018604305805638433,0.0007268349290825427
0.0014968904433771968,-0.001814899267628789,0.0007000546320341527
0.0011075674556195736,-0.0016845344798639417,0.0006377908866852522
0.0006955395801924169,-0.0014459884259849787,0.000532032921910286
0.00040318825631402433,-0.0011135815875604749,0.00039690276025794446
0.00016302864241879433,-0.0007807259098626673,0.0002635552955325693
-0.0001396839361405,-0.00045932154171168804,0.0001380948961013928
-0.0005660149035975337,-4.273234662832692e-05,-1.9440800315351225e-05
-0.0010559149086475372,0.0004303098248783499,-0.00020001314987894148
-0.0014993292279541492,0.0009185356902889907,-0.00038928596768528223
-0.0018221081700176,0.0013135571498423815,-0.0005465834401547909
-0.001983892172574997,0.001509740948677063,-0.0006238300120458007
-0.0019100647186860442,0.0015888247871771455,-0.0006506470963358879
-0.0016671100165694952,0.001623949850909412,-0.0006638444610871375
-0.0014738671015948057,0.0016602725954726338,-0.0006820046692155302
-0.0013010299298912287,0.0016331247752532363,-0.0006683601532131433
-0.0011934021022170782,0.0015588074456900358,-0.0006352578056976199
-0.001154826139099896,0.0014775431482121348,-0.0006046753260307014
-0.0010140048107132316,0.0013759250286966562,-0.0005620825104415417
-0.000679513905197382,0.0012083877809345722,-0.00048163029714487493
-0.0002793667954392731,0.0009562391205690801,-0.00035587226739153266
4.1626874008215964e-05,0.0006899506552144885,-0.0002213094849139452
0.00020160526037216187,0.0004708875494543463,-0.00011836952035082504
0.00025118698249571025,0.0002748510742094368,-3.799493788392283e-05
0.0003906371130142361,4.6733224735362455e-05,5.9241971030132845e-05
0.0007050831918604672,-0.00021238770568743348,0.00018234744493383914
0.0010502423392608762,-0.00048569784848950803,0.000310919334879145
0.001297159818932414,-0.0007528606220148504,0.00041430367855355144
0.0014906192664057016,-0.0010529676219448447,0.0005116985994391143
0.0016280318377539515,-0.0013959150528535247,0.0006257605273276567
0.0017466987483203411,-0.0016832450637593865,0.0007240515551529825
0.0018896004185080528,-0.0018332710023969412,0.0007722309674136341
0.0019343432504683733,-0.001870705047622323,0.0007737074047327042
0.001829448970966041,-0.0018647705437615514,0.000752654392272234
0.0016514970920979977,-0.0018448298797011375,0.000728344137314707
0.0013956187758594751,-0.0017596527468413115,0.0006804224685765803
0.0010897464817389846,-0.0015731360763311386,0.0005955093656666577
0.0006316740182228386,-0.001241811434738338,0.00044978316873311996
7.265219028340653e-05,-0.0008657217840664089,0.00028624723199754953
-0.0003214854223188013,-0.0005236786091700196,0.000152486827573739
-0.000575889484025538,-0.00015126014477573335,1.5695681213401258e-05
-0.0008845323463901877,0.000275215832516551,-0.0001444662775611505
-0.0012860539136454463,0.0007536988123320043,-0.00032954628113657236
-0.0017093237256631255,0.001188875176012516,-0.0005061837728135288
-0.0019824826158583164,0.0014599834103137255,-0.0006214146269485354
-0.001966963056474924,0.0015692845918238163,-0.0006624090019613504
-0.0017426261911168694,0.0016107653500512242,-0.0006702565588057041
-0.0015290554147213697,0.0016458505997434258,-0.0006829340127296746
-0.0013750992948189378,0.0016452238196507096,-0.0006885652546770871
-0.0012724071275442839,0.0015846665482968092,-0.0006669764406979084
-0.0012325921561568975,0.0015064746839925647,-0.0006322544650174677
-0.0011191100347787142,0.0014180727303028107,-0.0005850111483596265
-0.0008162152953445911,0.0012778970412909985,-0.0005067441961728036
-0.0004226808960083872,0.001053652842529118,-0.0003902094322256744
-8.523619908373803e-05,0.0007772093522362411,-0.0002565695031080395
0.00010966258560074493,0.000538129301276058,-0.00015293592878151685
0.00014254204870667309,0.0003496908175293356,-8.06703174021095e-05
0.0002489504113327712,0.00013614908675663173,1.3980851690575946e-05
0.0005752758588641882,-0.00011557475227164105,0.00013998629583511502
0.0009438692359253764,-0.00038792280247434974,0.000271121331024915
0.0011873141629621387,-0.0006420750869438052,0.00037551973946392536
0.0014048750745132565,-0.0009313472546637058,0.00047251099022105336
0.0016676315572112799,-0.0013078852789476514,0.0005995974061079323
0.0019060596823692322,-0.001647465629503131,0.0007165988790802658
0.0019314172677695751,-0.0018222213257104158,0.0007636725204065442
0.0016948565607890487,-0.0018463678425177932,0.0007426866795867682
0.0015278066275641322,-0.0018417389364913106,0.0007202726555988193
0.0015173130668699741,-0.001840628101490438,0.0007152492762543261
0.0014426037669181824,-0.0017908166628330946,0.0006921044550836086
0.0012164775980636477,-0.0016459478065371513,0.0006239376380108297
0.0007573618204332888,-0.0013573402538895607,0.0004908748669549823
0.00017320735787507147,-0.0009869568748399615,0.0003290196764282882
-0.00025739072589203715,-0.0006364969303831458,0.00019286057795397937
-0.0005092340288683772,-0.0002819618384819478,6.513275002362207e-05
-0.0007876622839830816,0.00012449636415112764,-8.756145689403638e-05
-0.0011809088755398989,0.0005881251418031752,-0.00026865972904488444
-0.0016371093224734068,0.0010516332695260644,-0.00045352388406172395
-0.0019882889464497566,0.001389712910167873,-0.0005886508151888847
-0.0020377833861857653,0.0015447173500433564,-0.0006452547386288643
-0.0018129601376131177,0.001595461624674499,-0.000657091848552227
-0.001573492307215929,0.0016319425776600838,-0.0006703226827085018
-0.0014393877936527133,0.0016525029204785824,-0.0006807413883507252
-0.0013416334986686707,0.00161402253434062,-0.0006633690209127963
-0.0013052297290414572,0.001539607997983694,-0.0006305860006250441
-0.0012101498432457447,0.0014578447444364429,-0.0005912003689445555
-0.0009002008009701967,0.001333617139607668,-0.0005267175147309899
-0.0005093690706416965,0.0011399555951356888,-0.00043158308835700154
-0.0001670891506364569,0.0008731336565688252,-0.00030519324354827404
9.860123827820644e-05,0.0006051181117072701,-0.00017635300173424184
0.00024471356300637126,0.0003984608338214457,-8.256762521341443e-05
0.0004156899522058666,0.00018027501937467605,1.3943886187917087e-05
0.0005777568439953029,-5.2564362704288214e-05,0.00011660725431283936
0.0006348819588311017,-0.0002796196495182812,0.00021128648950252682
0.0008200913434848189,-0.0005344332312233746,0.0003160990891046822
0.0011784235248342156,-0.0008212687098421156,0.00042340910295024514
0.00157670967746526,-0.0011812245938926935,0.0005533187068067491
0.0018848099280148745,-0.001539703574962914,0.0006784002762287855
0.00193247408606112,-0.0017658001743257046,0.0007418258464895189
0.0017392054433003068,-0.0018364156130701303,0.0007351633394137025
0.0015699660871177912,-0.0018414336955174804,0.0007141621317714453
0.0015480482252314687,-0.0018421430140733719,0.0007098961505107582
0.0014975896338000894,-0.0018072087550535798,0.0006975801661610603
0.0013016719603911042,-0.0016950584249570966,0.0006479964940808713
0.0008935723453760147,-0.0014555666130036116,0.0005359862698242068
0.000327181100146845,-0.0011036718497052789,0.000377765332814306
-0.0001447958202334121,-0.0007408031960949302,0.00023218091519083828
-0.00040316901868209243,-0.0004004820657428354,0.0001114387487177737
-0.0006590891280211508,-1.188130318041658e-05,-3.418210326344706e-05
-0.0010430872207507491,0.0004386416694615036,-0.00021131528774276376
-0.0015155915170907974,0.0009230611030943692,-0.00040399047429673374
-0.001961361849680543,0.0013323297025635839,-0.0005673851119354367
-0.002099372912198305,0.0015385312726721168,-0.0006410732748918235
-0.0018681579967960715,0.0015882225707173347,-0.0006467673811130226
-0.0015952441608533263,0.0016182115068659186,-0.0006604451918974519
-0.0014670875389128923,0.0016618998488411307,-0.0006892046076245606
-0.0013390316162258387,0.0016384391346946359,-0.0006779819959774613
-0.001192649477161467,0.0015531055396422744,-0.000630901544354856
-0.001032907865010202,0.0014663564506918192,-0.0005880757817067206
-0.0008986686589196324,0.001371385296806693,-0.0005478762905113399
-0.0008284204523079097,0.0012390126939862967,-0.0004927404224872589
-0.0005595774855464697,0.0009977368172258139,-0.0003757936065085232
-0.00013213380589149892,0.0007130330195650458,-0.00023348188551608473
0.0002016623766394332,0.00046960567124187946,-0.00011902767437277362
0.00043348397593945265,0.00023578105901833624,-1.5325229469453916e-05
0.0005435515195131302,1.0328755706723314e-05,7.944535900605842e-05
0.0005847412394359708,-0.00021495160763151944,0.000176990928594023
0.0007456137100234628,-0.00045801204396411777,0.00028829375514760613
0.0010850821854546666,-0.0007324603502638638,0.0004007462412118912
0.0014751661801710725,-0.0010617554653435946,0.0005167679046280682
0.0018076146952807903,-0.001423439709469676,0.0006400176789611578
0.0019280343549326062,-0.001699433894827962,0.0007259244448505342
0.0017899767262861133,-0.0018186247907578945,0.0007459535263478756
0.0016110832802951336,-0.0018377283122390509,0.0007333775283768773
0.001581080723553896,-0.0018407818861305714,0.0007275458774529397
0.00156741205137223,-0.001823611673898995,0.0007161524845287204
0.001405289745889604,-0.001740015810355544,0.0006743737612850964
0.0010516784386709332,-0.0015519763110205531,0.0005869187298230827
0.00048273190623149276,-0.001225031795911491,0.00044246853212825954
-4.272308069630526e-05,-0.0008492327178828418,0.0002888040617108345
-0.00028693885542452335,-0.0005219833692535758,0.00017145434685517102
-0.0005058644455857575,-0.0001571657630847767,3.581443888833746e-05
-0.0008624705369584262,0.0002646459615789354,-0.0001305445039179176
-0.00132266734726727,0.0007666343590244651,-0.00032967180595733225
-0.0017352524446323514,0.0012247543781995773,-0.000513445062097162
-0.0018578947056084871,0.0014579851413145661,-0.0006062895408831537
-0.0018318936927244067,0.001548434840515256,-0.0006478768191300333
-0.0018539723241701722,0.0016080919886007905,-0.0006850488716736436
-0.0017899448284879327,0.0016740139108151197,-0.0007165546412579715
-0.001527418033219874,0.0016555545153096318,-0.0007003980572335422
-0.001239463803358376,0.0015679404605180025,-0.0006552845006808639
-0.0010226881131529808,0.0014681771863251925,-0.0006088456138968468
-0.0009328456362709403,0.0013820829335600138,-0.0005702132475562394
-0.0008907764567993581,0.0012703747488558292,-0.0005230220849625766
-0.0006674052565358579,0.0010624234564602375,-0.0004233929794281721
-0.0002485178119968623,0.0007861887570470572,-0.000279412284726277
0.00012547142978291959,0.0005349114071577787,-0.00014929163444321603
0.00036497964174486697,0.0003172527067363262,-4.8096408136188984e-05
0.0004888470284640789,9.577778109814972e-05,4.4059350329916924e-05
0.0005337735055945814,-0.00012785111903212965,0.00013546162517741323
0.0006687009590677917,-0.0003718684602063149,0.00023982019047252834
0.0009876900585368276,-0.0006401482387445867,0.00035294066765345633
0.0013725555036216974,-0.0009457351407036185,0.00046805027523078024
0.0017118325922638178,-0.0013018010649830103,0.0005945110460743308
0.0019064247608184814,-0.0016300437273457646,0.00070526561466977
0.001814293093048036,-0.0017978758551180363,0.000745638448279351
0.0016355810221284628,-0.0018370047910138965,0.00073847925523296
0.0016200912650674582,-0.0018455097451806068,0.000733794760890305
0.0016383823240175843,-0.0018469803035259247,0.0007313370588235557
0.0015126417856663465,-0.0017946395091712475,0.0007023045909591019
0.0012378963874652982,-0.001648126868531108,0.000630859169177711
0.0007930758292786777,-0.0013560341903939843,0.0004969326546415687
0.0003246782289352268,-0.000990046188235283,0.00033973981044255197
-0.00010244517034152523,-0.0006441004807129502,0.00020438966748770326
-0.0006118391174823046,-0.0002542588335927576,5.345095996744931e-05
-0.0010390417883172631,0.0001790903479559347,-0.0001123636684496887
-0.0013292253715917468,0.0006371964700520039,-0.00028071558335796
-0.0016060794005170465,0.0010864902287721634,-0.00044841592898592353
-0.001761896419338882,0.0013873269781470299,-0.000564781716093421
-0.001827385276556015,0.0015283646062016487,-0.0006279970402829349
-0.0018769531743600965,0.0016010651597753167,-0.0006687714485451579
-0.001821371610276401,0.001659063040278852,-0.0006978096207603812
-0.001588908489793539,0.0016708554467186332,-0.0006950851529836655
-0.0012966638896614313,0.0016073654405772686,-0.000656347896438092
-0.00106538156978786,0.0015089890221133828,-0.0006079460144974291
-0.0009569149697199464,0.001416293904185295,-0.0005690919933840632
-0.0009302760008722544,0.0013182262191548944,-0.000530798570252955
-0.0007649185135960579,0.0011442782124504447,-0.00045210705138742924
-0.00036071453359909356,0.0008758672629483044,-0.000319866492645815
5.645608689519577e-05,0.0006024903268553317,-0.00018433912191540003
0.0003105551877524704,0.0003843154408968985,-8.37067564134486e-05
0.0004533708852250129,0.0001706484763417393,1.1255097888351884e-05
0.0004868303658440709,-4.6032480895519257e-05,0.00010767902858788148
0.0005918133538216352,-0.00028258931706659496,0.00021417539392132312
0.0009277654462493956,-0.0005585065227933228,0.00033491532667540014
0.0013123948592692614,-0.0008506886078976095,0.00044793618144467473
0.001637084293179214,-0.0011840584920719266,0.0005640558083541691
0.0019345348700881004,-0.0015608427347615361,0.0006980202160775661
0.0020187515765428543,-0.0017943097045645118,0.0007688635378144681
0.0019297588150948286,-0.0018602086929604411,0.0007640252588316798
0.0017484077252447605,-0.0018655754392966628,0.0007377156289294362
0.0014522618148475885,-0.0018317119684070349,0.00070196419255808
0.0012588031822815537,-0.0017855187179520726,0.0006782049895264208
0.0011644463520497084,-0.0016833182889968157,0.0006411477806977928
0.0009408772457391024,-0.0014614940155297518,0.0005459367530420423
0.0005455341888591647,-0.0011216579005122185,0.0003980628098361194
5.85875786782708e-05,-0.0007646591402590275,0.0002497047244105488
-0.000476548244478181,-0.0003848952183034271,9.786085865925997e-05
-0.0009158417233265936,3.223261228413321e-05,-6.372392090270296e-05
-0.0012133220443502069,0.00047852061106823385,-0.00023295772552955896
-0.001492415089160204,0.000932021823246032,-0.00040371788782067597
-0.0017166442703455687,0.0012906213523820043,-0.0005371489678509533
-0.0018352892948314548,0.0014874860644340515,-0.0006152432761155069
-0.001893513137474656,0.0015736084897071123,-0.0006617198814637959
-0.0018545598722994328,0.0016309579368680716,-0.0006959957536309958
-0.0016429191455245018,0.0016567743150517344,-0.0007032486028037965
-0.0013615097850561142,0.0016209373716264963,-0.0006766100996173918
-0.0011327657848596573,0.0015295125776901841,-0.0006269765435718
-0.0010078694904223084,0.0014420407824218273,-0.0005840393714606762
-0.0009969117818400264,0.001362704555504024,-0.0005513321957550943
-0.0008866879506967962,0.0012273337924852967,-0.00048755432362668216
-0.00047497707419097424,0.0009686454432085156,-0.00035465016844682395
-7.900167474872433e-06,0.0006729083834215999,-0.000204702460905537
0.0002575018152128905,0.00045301104546524584,-0.0001031648280331865
0.00043799341074191034,0.00023434267495758832,-1.0324087270419113e-05
0.0005860039964318275,2.747506414380041e-06,9.09479713300243e-05
0.0007561706588603556,-0.00023109972244128585,0.00019365458865649998
0.0009179742191918194,-0.00048409219016321003,0.0002991977089550346
0.000983167439699173,-0.0007208916358649731,0.00038264167960733175
0.0012342962436378002,-0.0010382533073425293,0.0004940382204949856
0.0016821464523673058,-0.0014232072280719876,0.0006385304150171578
0.001983024412766099,-0.0017167471814900637,0.0007424587965942919
0.002013667020946741,-0.0018435856327414513,0.000768251484259963
0.0018119665328413248,-0.0018578505842015147,0.0007451079436577857
0.0015091156819835305,-0.0018317998619750142,0.0007119103684090078
0.0013060555793344975,-0.0017920003738254309,0.0006852552760392427
0.0012257415801286697,-0.0017138967523351312,0.0006529862293973565
0.0010532845044508576,-0.0015347523149102926,0.0005753224832005799
0.0006881596054881811,-0.0012318025110289454,0.00044051127042621374
0.0001920951617648825,-0.0008710597758181393,0.0002853844198398292
-0.00033764319960027933,-0.0005047809099778533,0.00013884808868169785
-0.0007858512690290809,-0.00010637507512001321,-1.3672086424776353e-05
-0.0010859459871426225,0.0003276534262113273,-0.0001759492006385699
-0.0013667712919414043,0.0007921105134300888,-0.00034891959512606263
-0.0016597924986854196,0.0012137293815612793,-0.0005077286041341722
-0.0018333097686991096,0.0014706618385389447,-0.0006077821599319577
-0.0019187337020412087,0.0015755918575450778,-0.000652770628221333
-0.0018976305145770311,0.0016322353621944785,-0.0006766606238670647
-0.001681273221038282,0.0016678307438269258,-0.0006878954591229558
-0.001404165057465434,0.0016552250599488616,-0.000678948825225234
-0.0011794700985774398,0.0015752940671518445,-0.0006387339672073722
-0.0009931246750056744,0.001479150028899312,-0.0005892359768040478
-0.0008678535814397037,0.0013862610794603825,-0.0005501893465407193
-0.0007097900379449129,0.0012628409313037992,-0.0004969432484358549
-0.00048761392827145755,0.0010489948326721787,-0.0003950944810640067
-0.00032465573167428374,0.0007922515505924821,-0.0002757673792075366
-0.00010408023081254214,0.0005638396251015365,-0.0001654538937145844
0.00023465670528821647,0.0003344145370647311,-5.078004687675275e-05
0.0005467571900226176,9.303072147304192e-05,6.252520688576624e-05
0.000774518761318177,-0.0001499350619269535,0.00016939053602982312
0.0008886211435310543,-0.00039253252907656133,0.00026955048087984324
0.0009385741432197392,-0.0006275796913541853,0.00035553821362555027
0.0011440383968874812,-0.0009123471099883318,0.00045712522114627063
0.001567741041071713,-0.0012817238457500935,0.0005955016240477562
0.0019317850237712264,-0.0016199724050238729,0.0007157130166888237
0.0020336280576884747,-0.0018108546501025558,0.0007657531532458961
0.0018703454406931996,-0.0018564013298600912,0.0007520853541791439
0.0015760911628603935,-0.0018348857993260026,0.0007189580937847495
0.0013577056815847754,-0.0018012322252616286,0.000695812632329762
0.001288232859224081,-0.001750238356180489,0.0006745296996086836
0.0011705773649737239,-0.001620119553990662,0.000617442827206105
0.0008418566430918872,-0.001355879008769989,0.0005000248202122748
0.00034617315395735204,-0.0009936814894899726,0.0003407335316296667
-0.0002108195621985942,-0.0006284901755861938,0.00018640734197106212
-0.0006794025539420545,-0.0002473115164320916,4.187757076579146e-05
-0.0009569639223627746,0.00016850998508743942,-0.00010593640763545409
-0.0012164587387815118,0.0006226280820555985,-0.0002761868527159095
-0.001557860872708261,0.0010802908800542355,-0.00045879578101448715
-0.0017735332949087024,0.0014024644624441862,-0.0005880474345758557
-0.0017882285173982382,0.0015276422491297126,-0.000635708449408412
-0.0016973695019260049,0.001573686022311449,-0.0006521417526528239
-0.0016560025978833437,0.001636934233829379,-0.0006855724495835602
-0.0016915902961045504,0.0016762932064011693,-0.0007116299821063876
-0.0015441918512806296,0.0016304615419358015,-0.000684923492372036
-0.0012091143289580941,0.0015233858721330762,-0.0006245412514545023
-0.0009212370496243238,0.0014187232591211796,-0.0005726448143832386
-0.0007097438792698085,0.0013002366758883,-0.0005201491294428706
-0.0005573636153712869,0.0011230586096644402,-0.0004370728856883943
-0.00041775789577513933,0.0008773048757575452,-0.0003183351072948426
-0.00019445994985289872,0.0006300723762251437,-0.00020054167544003576
0.0001455247838748619,0.0003960353205911815,-9.433231025468558e-05
0.0004738776187878102,0.00015833166253287345,1.0704691703722347e-05
0.0007099812501110137,-8.45629838295281e-05,0.00011985549645032734
0.000831917452160269,-0.0003274631453678012,0.0002248841483378783
0.0008818162605166435,-0.0005653891712427139,0.00031714022043161094
0.0010467924876138568,-0.0008348053088411689,0.00041374124702997506
0.0014486099826171994,-0.001184048131108284,0.0005437451764009893
0.001873117871582508,-0.001554743736051023,0.000681516423355788
0.0020441862288862467,-0.001792686409316957,0.0007564704865217209
0.0019337881822139025,-0.0018670251592993736,0.0007573923794552684
0.0016283885343000293,-0.001849319669418037,0.0007259180420078337
0.001384625444188714,-0.0018214494921267033,0.0007057693437673151
0.001347096636891365,-0.0017902087420225143,0.0006949432427063584
0.0012853360967710614,-0.0016960313078016043,0.000656271236948669
0.0010130521841347218,-0.0014827867271378636,0.0005605256883427501
0.0005431462195701897,-0.0011192853562533855,0.0004007657989859581
7.327870116569102e-05,-0.000756469729822129,0.0002495880180504173
-0.00031092826975509524,-0.00040656671626493335,0.00011719534086296335
-0.0007647033780813217,2.295976628374774e-05,-4.6495504648191854e-05
-0.001321751275099814,0.0004993814509361982,-0.0002357022895012051
-0.0017642535967752337,0.0009942087344825268,-0.00042618130100890994
-0.0018755991477519274,0.0013418205780908465,-0.0005516697419807315
-0.0017855672631412745,0.0015015460085123777,-0.0006084198248572648
-0.0016551223816350102,0.001559440977871418,-0.0006338080274872482
-0.0016490089474245906,0.001623688731342554,-0.0006706242565996945
-0.0017163654556497931,0.0016845581121742725,-0.0007060583448037505
-0.001606321195140481,0.001660932321101427,-0.0006927467766217887
-0.0012821259442716837,0.0015589576214551926,-0.0006349075702019036
-0.0009621269418857992,0.0014420078368857503,-0.000574543431866914
-0.0007478645420633256,0.0013304107123985887,-0.000525528856087476
-0.0006089309463277459,0.0011800272623077035,-0.000463580567156896
-0.00048381590750068426,0.0009626420796848834,-0.0003668620192911476
-0.0002596429840195924,0.0007051388965919614,-0.00024251548165921122
8.240072929766029e-05,0.00046560680493712425,-0.00012304791016504169
0.0004228913749102503,0.00022846268257126212,-1.087880718841916e-05
0.0006605981034226716,-1.2781303666997701e-05,9.827717440202832e-05
0.0007996507338248193,-0.00025375228142365813,0.00020254454284440726
0.0008336788159795105,-0.0004895860911346972,0.0002957854012493044
0.0009500154992565513,-0.0007386138895526528,0.00039000637480057776
0.0013366074999794364,-0.0010574455372989178,0.0005098594119772315
0.0018181537743657827,-0.0014516651863232255,0.000654948758892715
0.0020644287578761578,-0.0017427295679226518,0.000755036307964474
0.0020362604409456253,-0.0018610694678500295,0.0007762110326439142
0.0018443380249664187,-0.0018691556761041284,0.0007479351479560137
0.0016688939649611712,-0.0018539326265454292,0.0007204859866760671
0.001469184528104961,-0.0018178169848397374,0.0006923049222677946
0.0011200575390830636,-0.0017061945982277393,0.0006356037338264287
0.0007978653884492815,-0.001509753754362464,0.000550468685105443
0.0005225443164817989,-0.0012018558336421847,0.0004253832739777863
0.00022113131126388907,-0.0008649881347082555,0.0002921556879300624
-0.00012519638403318822,-0.0005176303093321621,0.0001578802621224895
-0.0006023485912010074,-0.00011184269533259794,-6.4029359236883465e-06
-0.0011723603820428252,0.0003498930891510099,-0.0001959843939403072
-0.001633380656130612,0.0008317253086715937,-0.00038333400152623653
-0.0018226992106065154,0.00122851284686476,-0.0005263364873826504
-0.0017967458115890622,0.0014545670710504055,-0.0006009619683027267
-0.0016930594574660063,0.0015453244559466839,-0.0006313955527730286
-0.0016661070985719562,0.001603396376594901,-0.0006608822732232511
-0.0017305610235780478,0.0016642584232613444,-0.0006977943703532219
-0.0016727509209886193,0.0016706944443285465,-0.0007046004757285118
-0.0013710170751437545,0.0015868667978793383,-0.0006592971039935946
-0.00102850585244596,0.0014723202912136912,-0.0006003138842061162
-0.000807789561804384,0.0013664361322298646,-0.0005538881523534656
-0.0006743744015693665,0.0012413659133017063,-0.0004970838781446218
-0.0005856886855326593,0.0010509827407076955,-0.0004041503416374326
-0.00038340885657817125,0.0007892519934102893,-0.0002703833160921931
-9.65787512541283e-06,0.0005341717624105513,-0.00013908423716202378
0.00035718429717235267,0.0003035750996787101,-3.222931263735518e-05
0.0006031866651028395,7.324012403842062e-05,6.755835056537762e-05
0.000786685268394649,-0.0001693514786893502,0.00017470472084823996
0.0009345256257802248,-0.0004202206328045577,0.0002858840744011104
0.0011063042329624295,-0.0006660686922259629,0.00038349314127117395
0.0013038876932114363,-0.0009540073806419969,0.0004777692083735019
0.001471692230552435,-0.0013029553228989244,0.0005890103057026863
0.0016876490553840995,-0.0016210043104365468,0.0006939051672816277
0.001879097893834114,-0.0018072299426421523,0.0007459163898602128
0.001902108546346426,-0.0018709967844188213,0.0007533349562436342
0.0017923623090609908,-0.0018713859608396888,0.0007402879418805242
0.0015504768816754222,-0.0018333967309445143,0.0007126047275960445
0.00120133301243186,-0.001738936873152852,0.0006621885113418102
0.0008971357019618154,-0.0015742199029773474,0.0005901254480704665
0.0006486062775366008,-0.0013053776929154992,0.0004831715195905417
0.0003531005932018161,-0.0009701609378680587,0.0003488086222205311
2.9287551939205514e-08,-0.0006274695624597371,0.00021232222206890583
-0.00045483867870643735,-0.0002474356151651591,5.84630761295557e-05
-0.0010100464569404721,0.00019739056006073952,-0.00012054390390403569
-0.0014961606357246637,0.0006797892856411636,-0.0003063925541937351
-0.001750300289131701,0.0011179001303389668,-0.0004702716541942209
-0.0017947957385331392,0.0014058303786441684,-0.0005822913371957839
-0.0017253495752811432,0.0015235571190714836,-0.0006300491513684392
-0.0016774641117081046,0.0015818349784240127,-0.0006580498884432018
-0.001749488990753889,0.0016524575185030699,-0.0006969553069211543
-0.001743228523992002,0.0016924883238971233,-0.0007176824728958309
-0.001444535213522613,0.0016235802322626114,-0.0006815844681113958
-0.0010736091062426567,0.0015041468432173133,-0.0006192840519361198
-0.0008483685669489205,0.0014051797334104776,-0.0005667233490385115
-0.0006835823878645897,0.0012980499304831028,-0.0005126752075739205
-0.0005003446713089943,0.0011208935175091028,-0.0004297662526369095
-0.00022364221513271332,0.0008508259779773653,-0.00030167127260938287
-2.7713315375876846e-06,0.0005965311429463327,-0.00018432045180816203
5.7280045439256355e-05,0.00039981037843972445,-0.00010312352242181078
0.00023998507822398096,0.0001763952022884041,-5.702787802874809e-06
0.0005785879329778254,-7.699443813180551e-05,0.00011186057236045599
0.0008926628506742418,-0.00034244341077283025,0.00023332962882705033
0.0011253580451011658,-0.0005985305760987103,0.00034329225309193134
0.0012630625860765576,-0.0008602524176239967,0.00043539164471440017
0.001397550106048584,-0.0011859950609505177,0.0005408186698332429
0.001632314408197999,-0.0015275318874046206,0.0006622570799663663
0.0018797527300193906,-0.001768197980709374,0.0007495697354897857
0.0019559236243367195,-0.0018649197882041335,0.0007725578616373241
0.0018556417198851705,-0.0018751125317066908,0.0007558813085779548
0.0016229739412665367,-0.0018507115310057998,0.0007250611088238657
0.0012919052969664335,-0.001783824642188847,0.0006807366153225303
0.000989760970696807,-0.0016535682370886207,0.0006185523816384375
0.0007723512826487422,-0.0014318657340481877,0.0005273154238238931
0.0004966864944435656,-0.0011056732619181275,0.00039546837797388434
0.00012896681437268853,-0.0007525137043558061,0.00025326063041575253
-0.00030987910577096045,-0.0003869827778544277,0.00010742700396804139
-0.0008761209901422262,4.414720388012938e-05,-6.816419772803783e-05
-0.0013939653290435672,0.0005154556129127741,-0.0002551984216552228
-0.00167644873727113,0.0009825428714975715,-0.0004259987617842853
-0.0017726952210068703,0.0013406729558482766,-0.0005493080825544894
-0.0017399160424247384,0.0014999250415712595,-0.0006046369671821594
-0.0016417627921327949,0.001558032468892634,-0.0006318695959635079
-0.0015965185593813658,0.0016195676289498806,-0.000664205348584801
-0.0015423044096678495,0.0016701360000297427,-0.0006906502530910075
-0.0014368480769917369,0.0016433339333161712,-0.0006767770391888916
-0.0013810968957841396,0.001564759761095047,-0.0006422221194952726
-0.0012160917976871133,0.0014725093496963382,-0.0005975831882096827
-0.0008995096432045102,0.001352885621599853,-0.0005362234660424292
-0.0005729214171878994,0.0011804342502728105,-0.00045698534813709557
-0.00025861465837806463,0.0009246256086044014,-0.00033764613908715546
-6.784275319660082e-05,0.0006676351185888052,-0.0002205566706834361
-4.843287229050475e-07,0.0004604118876159191,-0.0001319071016041562
0.0001632555213291198,0.00024805471184663475,-3.4770520869642496e-05
0.000491422601044178,5.202507509238785e-06,8.691451512277126e-05
0.0008142261067405343,-0.0002522874856367707,0.00021276938787195832
0.0010469137923792005,-0.0005116534885019064,0.00032280420418828726
0.0011829601135104895,-0.0007724498282186687,0.0004103082465007901
0.001299752970226109,-0.0010730101494118571,0.000504017632920295
0.0015302278334274888,-0.0014206098858267069,0.0006247410201467574
0.0018330974271520972,-0.0017089267494156957,0.0007298876298591495
0.0019774280954152346,-0.0018487890483811498,0.0007713133236393332
0.001896532834507525,-0.0018738952931016684,0.0007593627669848502
0.00168408767785877,-0.001857378170825541,0.0007300567231141031
0.0013577020727097988,-0.0018059680005535483,0.0006911345990374684
0.0010581576498225331,-0.0017019581282511353,0.0006410576170310378
0.000899162667337805,-0.0015264470130205154,0.0005717474268749356
0.0006565679213963449,-0.001221248647198081,0.00044735235860571265
0.0002898779057431966,-0.0008741991478018463,0.00030414643697440624
-0.00010834429122041911,-0.0005263050552457571,0.00017076522635761648
-0.0005660472088493407,-0.00011545261804712936,1.175892430183012e-05
-0.0010033303406089544,0.00033365064882673323,-0.00016673012578394264
-0.0014776017051190138,0.0008343463996425271,-0.0003662191447801888
-0.0019339004065841436,0.0012727980501949787,-0.0005423449329100549
-0.0020428842399269342,0.0014995242236182094,-0.0006286600837484002
-0.0018243524245917797,0.0015624241204932332,-0.0006464130710810423
-0.001611865940503776,0.001604026765562594,-0.0006589002441614866
-0.0014990119962021708,0.001653298269957304,-0.0006819638074375689
-0.001460475381463766,0.0016553375171497464,-0.0006921953754499555
-0.001430726028047502,0.0015960180899128318,-0.000671941670589149
-0.0012747409055009484,0.0015058679273352027,-0.0006231362349353731
-0.0009665934485383332,0.001393888145685196,-0.0005566201289184391
-0.0006437117699533701,0.0012427879264578223,-0.0004808669909834862
-0.0003494746924843639,0.0010233564535155892,-0.00038123366539366543
-0.00013407542428467423,0.0007689574267715216,-0.00026363396318629384
-3.9845788705861196e-05,0.0005487386370077729,-0.0001615295623196289
0.00010109767754329368,0.0003368761681485921,-6.58101198496297e-05
0.0004165784048382193,9.347072773380205e-05,4.715563773061149e-05
0.0007563309045508504,-0.0001653695508139208,0.00016648154996801168
0.0009934428380802274,-0.0004243803850840777,0.0002780630311463028
0.00114067317917943,-0.0006820512935519218,0.0003740933316294104
0.0012165758525952697,-0.0009550872491672635,0.00046087653026916087
0.0014292232226580381,-0.0013054008595645428,0.0005843888502568007
0.001809294568374753,-0.0016497126780450344,0.0007142501999624074
0.0020318564493209124,-0.0018417149549350142,0.0007754297694191337
0.0019768273923546076,-0.0018805594881996512,0.0007698687841184437
0.001803763909265399,-0.0018709928262978792,0.000745269178878516
0.001588553423061967,-0.0018457657424733043,0.0007164032431319356
0.0013745680917054415,-0.0017725913785398006,0.0006789641338400543
0.001069991267286241,-0.0016097268089652061,0.0006099480087868869
0.0005456758663058281,-0.0012958922889083624,0.00046905851922929287
8.857466309564188e-05,-0.0009315901552326977,0.0003143505018670112
-0.0001558848744025454,-0.0006085103377699852,0.00019551129662431777
-0.00043271711911074817,-0.0002432819310342893,6.40958096482791e-05
-0.0008109523332677782,0.00018282741075381637,-0.00010239506809739396
-0.0013237695675343275,0.0006650896975770593,-0.00030288269044831395
-0.00184295151848346,0.0011312159476801753,-0.0004935963661409914
-0.002046824898570776,0.0014299702597782016,-0.0006018079002387822
-0.0018797966185957193,0.0015412098728120327,-0.000629196350928396
-0.0016206663567572832,0.0015784486895427108,-0.0006388826877810061
-0.0014595537213608623,0.0016223469283431768,-0.0006653169402852654
-0.0014110355405136943,0.0016470067203044891,-0.0006859331042505801
-0.001396773848682642,0.0016110028373077512,-0.0006700817029923201
-0.0012668006820604205,0.001524014282040298,-0.0006216925685293972
-0.0009678555652499199,0.0014142772415652871,-0.0005613900138996542
-0.0006394567899405956,0.0012791062472388148,-0.0004964937688782811
-0.0003681186935864389,0.0010879894252866507,-0.000411626766435802
-0.00013718772970605642,0.0008329810807481408,-0.0002959579578600824
-3.677822678582743e-05,0.0006000107969157398,-0.00018846418242901564
7.051472493913025e-05,0.0003996024315711111,-9.612010035198182e-05
0.0003933495609089732,0.00015775514475535601,1.782316576282028e-05
0.0007524682441726327,-0.00010121912782778963,0.00013661010598298162
0.0009847888723015785,-0.00034541694913059473,0.00024767746799625456
0.0011664879275485873,-0.0005988500197418034,0.0003564647922758013
0.0013238969258964062,-0.0008598831482231617,0.0004460557538550347
0.0015877728583291173,-0.0012074331752955914,0.0005628757644444704
0.0018276070477440953,-0.001570837921462953,0.0006876229308545589
0.0017909083981066942,-0.001769675174728036,0.0007407974917441607
0.0017034850316122174,-0.001832672394812107,0.0007446270901709795
0.001704221940599382,-0.0018484663451090455,0.0007385593489743769
0.0016633950872346759,-0.0018528506625443697,0.0007328248466365039
0.001511070760898292,-0.0018072170205414295,0.0007092848536558449
0.0011822943342849612,-0.0016734496457502246,0.0006453651585616171
0.0006735830684192479,-0.0014041576068848372,0.0005187428323552012
0.0002062789717456326,-0.0010554479667916894,0.0003653167514130473
-6.958103040233254e-05,-0.000723291770555079,0.00023533558123745024
-0.0003230585134588182,-0.00037809667992405593,0.00010713686788221821
-0.0006879026186652482,2.9408187401713803e-05,-4.897722465102561e-05
-0.0011919691460207105,0.0005037572118453681,-0.00023737523588351905
-0.0017443913966417313,0.0009905826300382614,-0.00043546222150325775
-0.002057445701211691,0.0013565580593422055,-0.00058276008348912
-0.0019671153277158737,0.0015165895456448197,-0.0006375411758199334
-0.0017234106780961156,0.001565449289046228,-0.0006468864157795906
-0.0015802220441401005,0.001610967330634594,-0.0006667629932053387
-0.0015489800134673715,0.0016592158935964108,-0.0006963624036870897
-0.0015688242856413126,0.0016500285128131509,-0.000698115152772516
-0.0014674741541966796,0.0015692481538280845,-0.0006575407460331917
-0.0011508045718073845,0.001453422592021525,-0.0005966900498606265
-0.0008091892232187092,0.0013324321480467916,-0.000539554690476507
-0.0005634615663439035,0.0011894737835973501,-0.00047170143807306886
-0.0002794964239001274,0.0009364853613078594,-0.00034262356348335743
-3.766344889299944e-05,0.0006629949202761054,-0.00020590631174854934
0.0001444783847546205,0.0004530585720203817,-0.00011120340786874294
0.00030482502188533545,0.00023282460460904986,-1.865432750491891e-05
0.0003575333976186812,1.914593121910002e-05,6.96664210408926e-05
0.0005364777171052992,-0.00022327181068249047,0.0001801902544684708
0.000880457810126245,-0.0004938310594297945,0.0003049035440199077
0.0012061774032190442,-0.000770996673963964,0.0004125895502511412
0.0015122574986889958,-0.0011020824313163757,0.0005255715805105865
0.001722655026242137,-0.001452444470487535,0.0006433735252358019
0.0017403712263330817,-0.0016994870966300368,0.0007186824805103242
0.0016913944855332375,-0.0018096911953762174,0.0007401042385026813
0.0016952201258391142,-0.0018467841437086463,0.0007385119679383934
0.0016687007155269384,-0.0018538328586146235,0.0007308250642381608
0.0015415502712130547,-0.0018232982838526368,0.0007094272878021002
0.0012563643977046013,-0.001717324135825038,0.0006527344230562449
0.0008022450492717326,-0.0014975442318245769,0.0005470167961902916
0.00033054471714422107,-0.00116987363435328,0.0004038683255203068
2.688903441594448e-05,-0.0008279556641355157,0.0002718839969020337
-0.00020696081628557295,-0.0004923224914819002,0.0001524091203464195
-0.000550786848179996,-0.0001016664391499944,5.850527031725505e-06
-0.0010273465886712074,0.0003538985038176179,-0.00017566846508998424
-0.0016083939699456096,0.0008501315023750067,-0.0003785533190239221
-0.0020290883257985115,0.0012825943995267153,-0.0005508143804036081
-0.0019928275141865015,0.001494283671490848,-0.0006214595632627606
-0.001736416365019977,0.0015479415887966752,-0.0006323045236058533
-0.0015752107137814164,0.001584082841873169,-0.0006534975836984813
-0.0015112912515178323,0.0016467813402414322,-0.0006913829711265862
-0.001443509361706674,0.001652127830311656,-0.0006934089469723403
-0.0012748329900205135,0.0015707396669313312,-0.0006479441071860492
-0.0011215544072911143,0.001482457504607737,-0.000601831590756774
-0.001083920244127512,0.0014022329123690724,-0.0005702687194570899
-0.0009103478514589369,0.0012699125800281763,-0.0005153884412720799
-0.0004974016337655485,0.0010221687844023108,-0.0003915222769137472
-8.759495540289208e-05,0.0007415118743665516,-0.0002460260584484786
0.0001808448723750189,0.0005118486587889493,-0.00013442036288324744
0.00029862308292649686,0.00030366683495230973,-4.7221616114256904e-05
0.0003423871530685574,8.641456952318549e-05,4.010737393400632e-05
0.0004977202625013888,-0.00015213291044346988,0.00014434668992180377
0.0008234058623202145,-0.00041978663648478687,0.0002663620107341558
0.001156546757556498,-0.0006930029485374689,0.0003794537333305925
0.0014455787604674697,-0.00099537696223706,0.0004901783540844917
0.0016698067774996161,-0.001335919019766152,0.000606570509262383
0.0017515303334221244,-0.0016258957330137491,0.0006964575150050223
0.0017391806468367577,-0.0017873042961582541,0.0007361728930845857
0.001759871025569737,-0.00184885214548558,0.0007425718358717859
0.0017584547167643905,-0.0018652691505849361,0.0007375752320513129
0.0016426877118647099,-0.0018476563272997737,0.0007211177726276219
0.0013871599221602082,-0.001767729059793055,0.0006780449184589088
0.0009550784016028047,-0.001585519639775157,0.000589659612160176
0.00048361055087298155,-0.001284599187783897,0.0004574334598146379
0.00017947815649677068,-0.0009367355378344655,0.0003203754604328424
-2.8640453820116818e-05,-0.0006184766534715891,0.00020625165780074894
-0.0003410056233406067,-0.0002658127050381154,7.561686652479693e-05
-0.0007825772045180202,0.0001820768229663372,-0.00010050975106423721
-0.0012813742505386472,0.0006776123773306608,-0.00029591351631097496
-0.001685946248471737,0.0011360002681612968,-0.00047495882608927786
-0.0018923254683613777,0.0014306408120319247,-0.0005925586447119713
-0.0019745088648051023,0.0015558409504592419,-0.0006483393954113126
-0.0018938906723633409,0.001617397298105061,-0.0006749093881808221
-0.0016711032949388027,0.0016572704771533608,-0.0006872001686133444
-0.0014579340349882841,0.001661892281845212,-0.0006871977238915861
-0.001250339555554092,0.0015909381909295917,-0.0006568034295924008
-0.0011404147371649742,0.0015063888859003782,-0.0006189742125570774
-0.0011129130143672228,0.0014261334436014295,-0.0005817858618684113
-0.0009667278500273824,0.0013137548230588436,-0.0005278668832033873
-0.0005965158925391734,0.001108416821807623,-0.000426900020102039
-0.0001773926051100716,0.0008338114712387323,-0.000292062119115144
0.00012052507372573018,0.0005800797953270376,-0.00017244915943592787
0.0002549563942011446,0.00036840722896158695,-8.315212471643463e-05
0.00029778206953778863,0.0001634126965655014,1.2969759382031043e-06
0.00043545971857383847,-6.538369052577764e-05,0.00010604679846437648
0.0007565204869024456,-0.0003226501867175102,0.00022812336101196706
0.00110882509034127,-0.0005975969834253192,0.00034680264070630074
0.0013735097600147128,-0.0008794481982477009,0.0004506748227868229
0.0016023011412471533,-0.0012164301006123424,0.0005641683819703758
0.001718826242722571,-0.0015494924737140536,0.000670929963234812
0.001741158775985241,-0.001760433311574161,0.0007359986775554717
0.0018003726145252585,-0.0018436562968418002,0.0007574075716547668
0.0018236117903143167,-0.0018680802313610911,0.000749488826841116
0.0017273308476433158,-0.0018654172308743,0.0007310010842047632
0.001539192977361381,-0.00181757437530905,0.0007041508797556162
0.0012445083120837808,-0.001685833209194243,0.0006472717504948378
0.0008682706975378096,-0.00143050542101264,0.0005378373898565769
0.00038121463148854673,-0.001065960619598627,0.0003785549779422581
-0.00015014244127087295,-0.0007076489855535328,0.0002257306914543733
-0.0005464400164783001,-0.00034489083918742836,8.72224845807068e-05
-0.0008116078097373247,5.4637755965813994e-05,-6.000451685395092e-05
-0.001127763418480754,0.0005033164634369314,-0.00023125229927245528
-0.0014990612398833036,0.0009721858077682555,-0.00041472207522019744
-0.001813091104850173,0.001328804180957377,-0.0005590915679931641
-0.0019823762122541666,0.0015161861665546894,-0.0006393205840140581
-0.0019304631277918816,0.0015900772996246815,-0.0006703511462546885
-0.0017138341208919883,0.0016315854154527187,-0.0006840262212790549
-0.0014924866845831275,0.001647950615733862,-0.0006888281204737723
-0.0013054318260401487,0.0016080288914963603,-0.0006690100417472422
-0.0011855358025059104,0.0015289171133190393,-0.0006313074845820665
-0.001149818068370223,0.0014532397035509348,-0.0005947410245425999
-0.0010343326721340418,0.0013588254805654287,-0.000546580005902797
-0.000700386066455394,0.0011880004312843084,-0.00045853733900003135
-0.00027036044048145413,0.0009247087291441858,-0.00032871641451492906
5.619963485514745e-05,0.0006504734046757221,-0.00020167784532532096
0.00021962486789561808,0.0004318461869843304,-0.00010937672050204128
0.00025309668853878975,0.0002342581283301115,-2.5652243493823335e-05
0.0003610990825109184,1.3485217095876578e-05,8.032842742977664e-05
0.0006877037230879068,-0.00024047646729741246,0.00020722694171126932
0.0010596852516755462,-0.0005146253388375044,0.0003319960960652679
0.0013037713943049312,-0.0007666544406674802,0.00042246223893016577
0.0015628589317202568,-0.00109446095302701,0.0005300825578160584
0.001828671433031559,-0.0014801743673160672,0.0006626493413932621
0.001971242483705282,-0.0017485221615061164,0.000748641206882894
0.0019027586095035076,-0.0018537244759500027,0.0007642830605618656
0.0016345412004739046,-0.0018494282849133015,0.0007340047741308808
0.001469553099013865,-0.0018373341299593449,0.0007162828114815056
0.0014453103067353368,-0.0018131331307813525,0.0007054409361444414
0.0013403124175965786,-0.001725712907500565,0.0006628516130149364
0.0010568795260041952,-0.0015214105369523168,0.0005664334748871624
0.0005566953914240003,-0.0011902047554031014,0.00042034639045596123
-8.092939424386714e-06,-0.0008262534975074232,0.0002700636105146259
-0.0004219429974909872,-0.0004643258871510625,0.00013498366752173752
-0.0006845662137493491,-7.218739483505487e-05,-4.854817689192714e-06
-0.000979787320829928,0.0003699009830597788,-0.00017046100401785225
-0.0013642122503370047,0.0008416895288974047,-0.00035523076076060534
-0.0017458238871768117,0.0012507016072049737,-0.0005188959185034037
-0.001988225383684039,0.001496352138929069,-0.0006178744952194393
-0.001979177352041006,0.001591113512404263,-0.0006536364089697599
-0.0017537538660690188,0.0016268701292574406,-0.0006614334415644407
-0.00151800736784935,0.001656204927712679,-0.0006695606280118227
-0.0013579174410551786,0.0016470268601551652,-0.0006652643205597997
-0.0012353828642517328,0.0015781678957864642,-0.0006351723568513989
-0.0012050126679241657,0.0014983307337388396,-0.000602229789365083
-0.0011228679213672876,0.0014094276120886207,-0.0005628972430713475
-0.0008008440490812063,0.0012576984008774161,-0.0004903741064481437
-0.0003679535002447665,0.0010120831429958344,-0.00037668185541406274
-1.80445822479669e-05,0.0007290194043889642,-0.00024503617896698415
0.00021015894890297204,0.0004937354242429137,-0.00013687342288903892
0.0003497714060358703,0.0002868476731237024,-4.382407132652588e-05
0.0005181219312362373,6.228138954611495e-05,6.091138857300393e-05
0.0006720154196955264,-0.00017499708337709308,0.0001653243525652215
0.0007369303493760526,-0.0004121291567571461,0.00026192417135462165
0.0009293626644648612,-0.0006636620964854956,0.0003607392718549818
0.0013200010871514678,-0.0009759861859492958,0.000477863970445469
0.001734592136926949,-0.001352440332993865,0.0006178868352435529
0.0019839711021631956,-0.0016661110566928983,0.0007265270105563104
0.0019358302233740687,-0.001820922363549471,0.0007565775886178017
0.0016866542864590883,-0.0018488623900339007,0.0007316976552829146
0.0015048315981402993,-0.0018381951376795769,0.0007070544525049627
0.0014735824661329389,-0.0018231081776320934,0.0006984026404097676
0.0014025549171492457,-0.0017585710156708956,0.000675894960295409
0.0011650401866063476,-0.0015941651072353125,0.0006081018364056945
0.0007076612673699856,-0.0012946650385856628,0.00047331603127531707
0.0001303868048125878,-0.0009237285703420639,0.00030694669112563133
-0.0003254723269492388,-0.0005668857484124601,0.00016305393364746124
-0.0005900211399421096,-0.0002077949611702934,3.499420199659653e-05
-0.0008575780084356666,0.00020792701980099082,-0.0001175755460280925
-0.001239900360815227,0.0006771868793293834,-0.0002993739617522806
-0.0016676431987434626,0.0011364666279405355,-0.0004816488071810454
-0.0020041209645569324,0.0014503445709124207,-0.0006081772735342383
-0.002054126001894474,0.0015712197637185454,-0.0006538591696880758
-0.0018063063034787774,0.0016013821586966515,-0.0006616862374357879
-0.0015465070027858019,0.001637232955545187,-0.0006783499266020954
-0.0014034768100827932,0.00165931589435786,-0.0006913162069395185
-0.0012378052342683077,0.0015960410237312317,-0.0006609131232835352
-0.001087511540390551,0.0014955502701923251,-0.0006133872084319592
-0.0009375358931720257,0.001402415568009019,-0.0005726105300709605
-0.0007986142300069332,0.0012924775946885347,-0.0005269667599350214
-0.0006930180825293064,0.0011131686624139547,-0.00044889954733662307
-0.0004051590512972325,0.0008398223435506225,-0.000314439763315022
-7.1441404543293174e-06,0.0005762894870713353,-0.00018136188737116754
0.0003097970620729029,0.0003456651174928993,-7.322837336687371e-05
0.0005359787028282881,0.00011460766836535186,3.2014235330279917e-05
0.0006435216637328267,-0.00011026091669918969,0.0001315729896305129
0.0006900484440848231,-0.0003417939005885273,0.00022887093655299395
0.0008579115383327007,-0.0005904060672037303,0.0003274174814578146
0.0012207101099193096,-0.0008873393526300788,0.000438839168054983
0.0016344082541763783,-0.0012447101762518287,0.0005730931297875941
0.0019322141306474805,-0.001585055491887033,0.0006987287197262049
0.0019602340180426836,-0.0017880063969641924,0.000756679626647383
0.001747719245031476,-0.0018453887896612287,0.0007463960209861398
0.0015462873270735145,-0.001841370714828372,0.0007206695154309273
0.0015149809187278152,-0.0018363518174737692,0.0007120002410374582
0.0014807820552960038,-0.0017951149493455887,0.0006940994644537568
0.0012756141368299723,-0.0016643502749502659,0.0006378033431246877
0.0008670348324812949,-0.0014045349089428782,0.0005241461331024766
0.0002744551165960729,-0.0010320479050278664,0.0003616386966314167
-0.00021896751422900707,-0.0006686501437798142,0.00021728279534727335
-0.00046024000039324164,-0.00032927747815847397,9.879023855319247e-05
-0.000698620977345854,6.61462327116169e-05,-4.774116678163409e-05
-0.001061691902577877,0.0005078129470348358,-0.0002207268844358623
-0.0015074939001351595,0.0010068108094856143,-0.0004190540930721909
-0.0018154897261410952,0.00137326680123806,-0.0005686877411790192
-0.0018243954982608557,0.0015103558544069529,-0.0006228627171367407
-0.0017641092417761683,0.001576126436702907,-0.0006530479877255857
-0.0018057484412565827,0.0016424080822616816,-0.0006925053894519806
-0.0017426487756893039,0.0016896905144676566,-0.0007134592160582542
-0.0014381107175722718,0.0016286500031128526,-0.0006754107889719307
-0.0011297805467620492,0.001525964355096221,-0.0006206118850968778
-0.0009128780802711844,0.0014227592619135976,-0.0005757816252298653
-0.0008207401842810214,0.001327386125922203,-0.0005374836036935449
-0.0007520820363424718,0.0011819580104202032,-0.0004713009693659842
-0.0005049188039265573,0.0009427879704162478,-0.0003504877386149019
-0.00010285682219546288,0.0006714292103424668,-0.0002119069395121187
0.00024343846598640084,0.0004285225586500019,-9.678048081696033e-05
0.00047330805682577193,0.00020185552421025932,2.3177542516350513e-06
0.0005927001475356519,-2.66605075012194e-05,9.951642277883366e-05
0.0006343781133182347,-0.00025526114040985703,0.00019763752061408013
0.0007728573400527239,-0.0005063969292677939,0.0003046127094421536
0.0011067284503951669,-0.0007874545990489423,0.0004133697075303644
0.001520030782558024,-0.0011247174115851521,0.0005321101052686572
0.0018488569185137749,-0.001485683722421527,0.0006593329599127173
0.0019611308816820383,-0.001746739144437015,0.0007447463576681912
0.0017798186745494604,-0.0018322274554520845,0.0007509420975111425
0.0015566792571917176,-0.0018299504881724715,0.0007231413037516177
0.0015326502034440637,-0.0018310915911570191,0.0007117800996638834
0.0015402743592858315,-0.0018202904611825943,0.0007057092152535915
0.0013879042817279696,-0.0017374268500134349,0.0006706531858071685
0.0010590655729174614,-0.0015292149037122726,0.0005818206700496376
0.0005613506073132157,-0.0011721771443262696,0.00042501348070800304
0.0001219967525685206,-0.0008155657560564578,0.000272556470008567
-0.0002886663714889437,-0.000467074743937701,0.00013845069042872638
-0.0008181162993423641,-5.175430123927072e-05,-2.475774999766145e-05
-0.001259117852896452,0.00040366407483816147,-0.00020063441479578614
-0.0015414521330967546,0.0008751547429710627,-0.0003766191366594285
-0.001726915710605681,0.0012639171909540892,-0.0005216128774918616
-0.001764052314683795,0.0014726518420502543,-0.0006013349629938602
-0.001774660893715918,0.0015616159653291106,-0.0006455296534113586
-0.0018306549172848463,0.0016291756182909012,-0.0006871584337204695
-0.001778867794200778,0.0016777435084804893,-0.0007131992024369538
-0.001516819349490106,0.0016486671520397067,-0.0006945684435777366
-0.0011976761743426323,0.0015519506996497512,-0.0006432548980228603
-0.0009673404856584966,0.0014517795061692595,-0.0005924100987613201
-0.0008657797006890178,0.001362363575026393,-0.0005505617591552436
-0.0008212144020944834,0.0012418346013873816,-0.0004966626293025911
-0.0006161986384540796,0.0010226364247500896,-0.0003925812488887459
-0.00020240331650711596,0.0007396693690679967,-0.0002494729997124523
0.00018395476217847317,0.0004858531756326556,-0.0001260366989299655
0.0004163142875768244,0.00026726259966380894,-3.091453618253581e-05
0.0005532801151275635,4.047347465530038e-05,6.548543024109676e-05
0.0005799002829007804,-0.0001788908411981538,0.00016107846749946475
0.0006852468359284103,-0.00041786322253756225,0.0002680577163118869
0.0010283669689670205,-0.0006933689001016319,0.00038356895674951375
0.001448016962967813,-0.0010117017664015293,0.0004954691394232213
0.0017995121888816357,-0.00137866020668298,0.0006221441435627639
0.0020240468438714743,-0.0017046306747943163,0.0007366921054199338
0.0019999516662210226,-0.0018480928847566247,0.0007706120959483087
0.001853959751315415,-0.0018629587721079588,0.0007548247813247144
0.0016592403408139944,-0.0018532563699409366,0.0007334244437515736
0.0013605027925223112,-0.001810962799936533,0.000698462943546474
0.0011493513593450189,-0.0017359397606924176,0.000660100718960166
0.0010238554095849395,-0.0015836930833756924,0.000599370920099318
0.0007486222311854362,-0.0012959332671016455,0.0004809468809980899
0.00035004012170247734,-0.0009415588574483991,0.0003345698060002178
-0.00012247823178768158,-0.0005868480657227337,0.00018977225408889353
-0.0006641192594543099,-0.00018798622477333993,2.842925641743932e-05
-0.0011127234902232885,0.00025062536587938666,-0.0001410505356034264
-0.0014156937832012773,0.000713534711394459,-0.00031496427254751325
-0.0016439961036667228,0.0011366057442501187,-0.0004748940991703421
-0.001760987681336701,0.00141507713124156,-0.000579969841055572
-0.0017959177494049072,0.0015447322512045503,-0.0006320776883512735
-0.0018429819028824568,0.001618145382963121,-0.0006718998192809522
-0.0018155332654714584,0.0016775303520262241,-0.0007057929178699851
-0.0015885821776464581,0.0016770915826782584,-0.0007010262343101203
-0.0012714785989373922,0.0015979724703356624,-0.0006535202264785767
-0.001035607303492725,0.0014940942637622356,-0.0005984770250506699
-0.0009192959987558424,0.0014045313000679016,-0.0005578708369284868
-0.0009013697854243219,0.0013051774585619569,-0.0005176241393201053
-0.0007553947507403791,0.001126826391555369,-0.00043602826190181077
-0.0003206282272003591,0.0008395952172577381,-0.0002914576616603881
0.00011366930993972346,0.0005647138459607959,-0.00015701023221481591
0.00035529833985492587,0.00035466079134494066,-6.76563722663559e-05
0.0005438390071503818,0.00012475169205572456,3.319121969980188e-05
0.0006883153691887856,-0.00010922353249043226,0.0001402581692673266
0.0008572862716391683,-0.0003543900093063712,0.00024807016598060727
0.001017546746879816,-0.000610727583989501,0.00034674728522077203
0.0011066204169765115,-0.0008697052835486829,0.00042926857713609934
0.0013974652392789721,-0.0012244366807863116,0.0005560501595027745
0.00180689652916044,-0.0015801240224391222,0.0006880044238641858
0.0020108071621507406,-0.0017960580298677087,0.0007537485216744244
0.0019675486255437136,-0.0018679086351767182,0.0007555531919933856
0.0017392368754372,-0.0018644994124770164,0.0007305520703084767
0.001433730241842568,-0.0018325976561754942,0.000700421747751534
0.0012177492026239634,-0.001770050497725606,0.0006651343428529799
0.0011007499415427446,-0.0016473161522299051,0.0006118143792264163
0.0008698845049366355,-0.001401331857778132,0.0005101849674247205
0.0004842286871280521,-0.0010620320681482553,0.00037150050047785044
1.2001160030195024e-05,-0.0007032295106910169,0.00022628768056165427
-0.000514474930241704,-0.0003235151234548539,7.336516137002036e-05
-0.0009814082877710462,0.00010258048860123381,-9.256089106202126e-05
-0.0012905694311484694,0.0005580767174251378,-0.0002602360036689788
-0.0015449776547029614,0.001012550201267004,-0.0004271081415936351
-0.001741865649819374,0.001355646993033588,-0.0005568414344452322
-0.001806807704269886,0.0015199894551187754,-0.000623116793576628
-0.0018622393254190683,0.0015972915571182966,-0.000663981307297945
-0.0018600824987515807,0.0016625691205263138,-0.0006980544421821833
-0.0016455445438623428,0.0016887631500139832,-0.0007039263728074729
-0.0013204320566728711,0.001628153957426548,-0.0006702716345898807
-0.001065775752067566,0.0015214954037219286,-0.0006206053658388555
-0.0008951398776844144,0.0014266546349972486,-0.0005778071354143322
-0.0007812164258211851,0.001334001892246306,-0.0005383038078434765
-0.0005949964397586882,0.0011779444757848978,-0.00046763772843405604
-0.00033933887607418,0.0009183593210764229,-0.0003419334243517369
-0.00020034813496749848,0.000669614877551794,-0.00022411900863517076
-6.772453616576968e-06,0.0004568265867419541,-0.00012390890333335847
0.0003338493697810918,0.00021873434889130294,-6.021311946824426e-06
0.0006405656458809972,-2.9091654141666368e-05,0.00011312279821140692
0.0008645596681162715,-0.00027915765531361103,0.00022295542294159532
0.0009798796381801367,-0.0005227898363955319,0.0003146550734527409
0.0010447758249938488,-0.0007720484281890094,0.0003957762382924557
0.0012836450478062034,-0.0010976865887641907,0.0005086124292574823
0.0016966733383014798,-0.0014698462327942252,0.0006501449388451874
0.0019814425613731146,-0.0017442080425098538,0.0007503708475269377
0.002001432469114661,-0.0018623907817527652,0.0007753349491395056
0.0017998997354879975,-0.0018720937659963965,0.0007510402356274426
0.0014983583241701126,-0.0018438160186633468,0.0007164853741414845
0.001267283339984715,-0.0017945937579497695,0.0006849005003459752
0.0011662462493404746,-0.001703820307739079,0.0006455950206145644
0.0009957085130736232,-0.0015103049809113145,0.0005653705447912216
0.0006224798853509128,-0.001187172718346119,0.00043219319195486605
0.00014094900689087808,-0.0008149699424393475,0.0002837950305547565
-0.0003979216271545738,-0.0004434364091139287,0.0001390578836435452
-0.0008890337194316089,-3.286397986812517e-05,-1.8996048311237246e-05
-0.0011808238923549652,0.00040161522338166833,-0.00018405205628369004
-0.001430999836884439,0.0008651259122416377,-0.0003632905427366495
-0.0016893879510462284,0.0012698537902906537,-0.000522524700500071
-0.0017716505099087954,0.0014897915534675121,-0.0006030306685715914
-0.0017291391268372536,0.0015671817818656564,-0.0006339118117466569
-0.0016457384917885065,0.0016126817790791392,-0.0006633588345721364
-0.0016105424147099257,0.001670909347012639,-0.0006985213258303702
-0.001617483445443213,0.0016686791786924005,-0.0007039604824967682
-0.0014468043809756637,0.001590663567185402,-0.0006620166823267937
-0.0011169095523655415,0.00147527817171067,-0.0006018716958351433
-0.0008288795361295342,0.0013599044177681208,-0.000549491320271045
-0.0005984908202663064,0.001213457202538848,-0.0004841648624278605
-0.000415778806200251,0.000992241082713008,-0.0003814968513324857
-0.00028215363272465765,0.0007447812822647393,-0.0002647234941832721
-8.261512266471982e-05,0.0005204634508118033,-0.0001575496280565858
0.000251533929258585,0.0002892200427595526,-4.527946293819696e-05
0.0005783159867860377,4.370815076981671e-05,7.202136475825682e-05
0.0008138909470289946,-0.00020261621102690697,0.00018515910778660327
0.0009375288500450552,-0.0004445071390364319,0.0002844220434781164
0.000993494177237153,-0.0006867763586342335,0.0003676178166642785
0.0011820727959275246,-0.000984442187473178,0.00047068987623788416
0.0015969212399795651,-0.0013545604888349771,0.0006126873195171356
0.0019632012117654085,-0.0016778538702055812,0.0007339470321312547
0.002040974795818329,-0.0018385575385764241,0.0007748908828943968
0.0018726958660408854,-0.0018671666039153934,0.0007542900857515633
0.0015570399118587375,-0.0018402416026219726,0.0007188216550275683
0.0013096143957227468,-0.0018054174724966288,0.0006951477844268084
0.0012497154530137777,-0.0017458907095715404,0.0006734389462508261
0.0011456076754257083,-0.001599495648406446,0.0006168534164316952
0.0008076985250227153,-0.0013102476950734854,0.0004930084687657654
0.0003388856421224773,-0.0009398431866429746,0.0003335515211801976
-9.934149420587346e-05,-0.000592278316617012,0.00019521938520483673
-0.0005026133148930967,-0.0002093716466333717,4.9801557906903327e-05
-0.0009685586555860937,0.0002409524895483628,-0.00012489513028413057
-0.0015337256481871009,0.0007392638945020735,-0.0003236204502172768
-0.0019209939055144787,0.0011924877762794495,-0.0005027774604968727
-0.0019115091999992728,0.0014358125627040863,-0.0005947159370407462
-0.0017447004793211818,0.0015269448049366474,-0.0006283956463448703
-0.0016018857713788748,0.0015740151284262538,-0.0006485481280833483
-0.0016004393110051751,0.0016406504437327385,-0.0006837625987827778
-0.00164318538736552,0.001670836703851819,-0.0007014357252046466
-0.0015078152064234018,0.0016164181288331747,-0.00067190732806921
-0.0011873088078573346,0.0015116583090275526,-0.0006125905783846974
-0.0008811636362224817,0.001396999228745699,-0.0005561780417338014
-0.0006598210311494768,0.001264834078028798,-0.000500309921335429
-0.0004886937676928937,0.0010722515871748328,-0.00041653195512481034
-0.00035008316626772285,0.0008338592015206814,-0.00030505371978506446
-0.00015449666534550488,0.0005966293392702937,-0.00018939812434837222
0.0001674158702371642,0.0003683593531604856,-7.785849447827786e-05
0.0005124755552969873,0.00012036808038828894,3.8136997318360955e-05
0.0007479698397219181,-0.00012501671153586358,0.00014759364421479404
0.0008871070458553731,-0.00036809861194342375,0.00024956921697594225
0.0009271172457374632,-0.0006015793769620359,0.0003347541205585003
0.001066243858076632,-0.0008667592192068696,0.0004282581794541329
0.001494292402639985,-0.0012328396551311016,0.0005696215084753931
0.0019413444679230452,-0.0016113357851281762,0.0007153172045946121
0.002089432207867503,-0.0018246812978759408,0.0007802718901075423
0.001986569259315729,-0.0018755478085950017,0.0007699000416323543
0.0017748037353157997,-0.001860711956396699,0.0007386686629615724
0.001597249647602439,-0.001842236379161477,0.0007196360966190696
0.0013705621240660548,-0.0017844027606770396,0.0006866947514936328
0.0009890039218589664,-0.0016394421691074967,0.0006100063328631222
0.0006110348622314632,-0.0013739012647420168,0.0004899599589407444
0.0003224956162739545,-0.0010340266162529588,0.0003510650130920112
4.3840740545419976e-05,-0.0007052980945445597,0.000224394301767461
-0.00030245602829381824,-0.0003437506384216249,8.730221452424303e-05
-0.0007881817873567343,8.447028085356578e-05,-8.198114664992318e-05
-0.0013693161308765411,0.0005737054743804038,-0.0002766300458461046
-0.001800657482817769,0.0010467184474691749,-0.00045758928172290325
-0.001890398794785142,0.0013694909866899252,-0.0005699353059753776
-0.001765360007993877,0.0015152038540691137,-0.0006159392651170492
-0.0016294443048536777,0.0015754192136228085,-0.0006396322278305888
-0.0016113234451040626,0.001635621185414493,-0.0006737295771017671
-0.0016729749040678144,0.0016844895435497165,-0.0007044700323604047
-0.0015873544616624713,0.0016496088355779648,-0.000690313579980284
-0.0012705079279839993,0.0015365452272817492,-0.0006325917784124613
-0.0009312352631241083,0.00141905399505049,-0.0005737037863582373
-0.0007117670029401779,0.001309495884925127,-0.0005254572606645525
-0.000559477717615664,0.0011553799267858267,-0.0004586328286677599
-0.0004447691608220339,0.0009245073306374252,-0.0003533720737323165
-0.000256208935752511,0.000667889486066997,-0.0002279017207911238
8.842604438541457e-05,0.000435645371908322,-0.0001089546422008425
0.00045284366933628917,0.00019572782912291586,5.052129381510895e-06
0.0006901697488501668,-3.9153703255578876e-05,0.00010793207911774516
0.0008757238974794745,-0.0002881037362385541,0.00022294287919066846
0.001029865350574255,-0.0005369401187635958,0.0003334817592985928
0.0012148607056587934,-0.0007899978081695735,0.00042021097033284605
0.0014529796317219734,-0.0011268233647570014,0.0005260453908704221
0.0016131452284753323,-0.0014794844901189208,0.0006429010536521673
0.0017537703970447183,-0.0017307423986494541,0.0007322217570617795
0.0018651022110134363,-0.001842276193201542,0.0007621735567227006
0.0018474790267646313,-0.0018714678008109331,0.0007500229985453188
0.0017256345599889755,-0.0018671926809474826,0.000726192316506058
0.0014688653172925115,-0.0018167372327297926,0.0006923858891241252
0.0010908683761954308,-0.0016883645439520478,0.0006344732246361673
0.0007308935164473951,-0.0014590692007914186,0.0005375224864110351
0.0004438854812178761,-0.0011453247861936688,0.00040804955642670393
0.00015984625497367233,-0.0008125349995680153,0.0002753394655883312
-0.00018129195086658,-0.0004667055618483573,0.0001402326743118465
-0.0006458457210101187,-6.0819020291091874e-05,-2.428412699373439e-05
-0.0012165589723736048,0.00040998644544743,-0.0002181206364184618
-0.0016970464494079351,0.0008940660045482218,-0.00041216154932044446
-0.0018763222033157945,0.0012744059786200523,-0.0005533255753107369
-0.001802138052880764,0.001471894676797092,-0.0006167758838273585
-0.0016714312369003892,0.0015456676483154297,-0.000635458214674145
-0.001626254990696907,0.0016036060405895114,-0.0006589575787074864
-0.0017112868372350931,0.0016711154021322727,-0.0006941762985661626
-0.0016835188725963235,0.001672732294537127,-0.000695406983140856
-0.0013580521335825324,0.0015726583078503609,-0.0006380954873748124
-0.0009895294206216931,0.0014582292642444372,-0.0005742196226492524
-0.0007699135458096862,0.0013604045379906893,-0.0005305528175085783
-0.0005906494334340096,0.0012264427496120334,-0.00047446793178096414
-0.0003649902355391532,0.0009944419143721461,-0.00036907123285345733
-9.310325549449772e-05,0.0007216102676466107,-0.00023959223472047597
8.765645179664716e-05,0.0005025704158470035,-0.00014189767534844577
0.00014635683328378946,0.0003054473490919918,-5.907695958740078e-05
0.00033023941796272993,7.967578858369961e-05,4.35806141467765e-05
0.0006695396150462329,-0.00017920203390531242,0.00016433016571681947
0.0009872993687167764,-0.000453801330877468,0.000286381779005751
0.0012264038668945432,-0.0007219754625111818,0.00038774506538175046
0.001396083040162921,-0.001023286720737815,0.0004852312267757952
0.0015363210113719106,-0.0013660597614943981,0.0005984005401842296
0.0017059099627658725,-0.0016583772376179695,0.000703474332112819
0.001864339574240148,-0.0018229783745482564,0.0007604480488225818
0.0018866985337808728,-0.0018709368305280805,0.0007641901029273868
0.0017720540054142475,-0.0018660848727449775,0.0007446781382896006
0.0015281382948160172,-0.001825676648877561,0.00071261718403548
0.0011730619007721543,-0.001725635607726872,0.0006603984511457384
0.0008303343784064054,-0.0015408011386170983,0.0005794222233816981
0.0005654125125147402,-0.0012616923777386546,0.00046372177894227207
0.0002835643826983869,-0.0009258693899028003,0.00032587815076112747
-5.8171386626781896e-05,-0.0005861185491085052,0.0001906774559756741
-0.0004957173950970173,-0.00019739994604606181,3.9040871342876926e-05
-0.0010699685662984848,0.0002647668879944831,-0.00014425536210183054
-0.001593453111127019,0.0007551996968686581,-0.00033502563019283116
-0.0018310993909835815,0.0011874480405822396,-0.0004935729666613042
-0.0018031804356724024,0.0014406013069674373,-0.0005817059427499771
-0.0016853738343343139,0.0015276978956535459,-0.0006133256829343736
-0.0015845946036279202,0.0015775997890159488,-0.000638238328974694
-0.0015590094262734056,0.0016491696005687118,-0.0006728695007041097
-0.0014775394229218364,0.0016702314605936408,-0.0006836764514446259
-0.0013362918980419636,0.001605136669240892,-0.000652700662612915
-0.0012825028970837593,0.0015217518666759133,-0.000619018916040659
-0.0011208441574126482,0.0014266865327954292,-0.0005810183356516063
-0.0007992038154043257,0.0012896214611828327,-0.0005193485412746668
-0.0004410923575051129,0.0010729554342105985,-0.00041831526323221624
-0.00011039257515221834,0.0007995441555976868,-0.00028586859116330743
6.17310288362205e-05,0.0005637605208903551,-0.00017392271547578275
0.00011425659613450989,0.0003629799175541848,-8.374243770958856e-05
0.00027145034982822835,0.00014517003728542477,1.7004225810524076e-05
0.0005977063556201756,-0.00010473125439602882,0.00013644120190292597
0.0009233393939211965,-0.00037040107417851686,0.0002594485995359719
0.0011621812591329217,-0.0006356825469993055,0.00036726711550727487
0.0013199575478211045,-0.0009169941768050194,0.00046016971464268863
0.0014593496453016996,-0.0012445066822692752,0.0005638495786115527
0.0016534446040168405,-0.0015703501412644982,0.0006768446764908731
0.001865588827058673,-0.0017895482014864683,0.000756189925596118
0.001936627086251974,-0.0018727655988186598,0.0007751356461085379
0.0018347632139921188,-0.0018767110304906964,0.0007568427827209234
0.001621744129806757,-0.0018486632034182549,0.0007291256915777922
0.0012774618808180094,-0.0017691344255581498,0.0006845362950116396
0.0009340224787592888,-0.0016194687923416495,0.0006163968937471509
0.000707747763954103,-0.001375317107886076,0.0005165882757864892
0.00043928707600571215,-0.0010379820596426725,0.0003734218771569431
0.00010575915803201497,-0.0007138974615372717,0.00023595461971126497
-0.0002955695672426373,-0.00034524028887972236,9.181151108350605e-05
-0.000765429635066539,9.624683298170567e-05,-8.000335219549015e-05
-0.0012106101494282484,0.0005652232212014496,-0.0002656080760061741
-0.0016646151198074222,0.0010501736542209983,-0.00046057396684773266
-0.002014830242842436,0.0013934561284258962,-0.0006001309375278652
-0.002025692956522107,0.0015428034821525216,-0.0006546337972395122
-0.0017774126026779413,0.001582776545546949,-0.0006600648630410433
-0.0015778504312038422,0.0016249512555077672,-0.0006745513528585434
-0.0014509197790175676,0.0016507619293406606,-0.0006860228022560477
-0.00137425831053406,0.001618570531718433,-0.0006694206385873258
-0.001331634703092277,0.0015483744209632277,-0.0006368946051225066
-0.0011855469783768058,0.001455671270377934,-0.0005932127241976559
-0.0008804829558357596,0.0013320527505129576,-0.0005288720712997019
-0.0005290145636536181,0.0011438215151429176,-0.000433868495747447
-0.0002071649651043117,0.0008907870505936444,-0.00031096802558749914
-8.364761924894992e-06,0.0006441367440856993,-0.00019713863730430603
5.333913577487692e-05,0.00044412477291189134,-0.00011318048200337216
0.00018435543461237103,0.0002296439342899248,-1.8887472833739594e-05
0.0004995966446585953,-2.2968704797676764e-05,0.00010387133806943893
0.0008437009528279305,-0.0002895553770940751,0.00023049554147291929
0.0010829787934198976,-0.0005481942789629102,0.0003365259035490453
0.0012343715643510222,-0.0008084003929980099,0.00042366774869151413
0.0013376178685575724,-0.0011115988017991185,0.0005182715831324458
0.001546390587463975,-0.0014654815895482898,0.0006419827113859355
0.0018432862125337124,-0.0017418288625776768,0.0007442259811796248
0.0019802034366875887,-0.001862664707005024,0.0007761057931929827
0.0018917149864137173,-0.001877232687547803,0.0007568142027594149
0.0017171227373182774,-0.0018655577441677451,0.0007306591724045575
0.001493804040364921,-0.0018235758179798722,0.0006999062024988234
0.001252576126717031,-0.0017159564886242151,0.0006494491826742887
0.00088970095384866,-0.0014882796676829457,0.0005474348436109722
0.0003260773082729429,-0.0011212724493816495,0.00038524545379914343
-0.00010046375246020034,-0.0007623882265761495,0.00024146275245584548
-0.00033097289269790053,-0.0004290528013370931,0.00011955341324210167
-0.0006172650028020144,-4.31429834861774e-05,-2.704153666854836e-05
-0.0010100924409925938,0.00040324198198504746,-0.00020036459318362176
-0.001516998978331685,0.0008912210469134152,-0.0003923459444195032
-0.001955948770046234,0.001291772467084229,-0.000552098557818681
-0.002058291109278798,0.0014980882406234741,-0.0006307819276116788
-0.001850895001552999,0.0015633031725883484,-0.0006483359029516578
-0.0016225629951804876,0.0016050662379711866,-0.0006607880932278931
-0.001492156065069139,0.0016491056885570288,-0.0006791959749534726
-0.0014290300896391273,0.001643983181566,-0.0006800617557018995
-0.0013876431621611118,0.0015797951491549611,-0.0006567921955138445
-0.0012541076866909862,0.0014887028373777866,-0.0006167574319988489
-0.0009567285887897015,0.0013745445758104324,-0.0005570776993408799
-0.0006067511276341975,0.0012129928218200803,-0.00047431665007025003
-0.00029604320297949016,0.0009803925640881062,-0.0003641761722974479
-6.181315256981179e-05,0.0007147930446080863,-0.0002420693199383095
2.7612475150817772e-06,0.0005018219817429781,-0.00014991371426731348
0.00010059944906970486,0.00029782377532683313,-5.9973735915264115e-05
0.0004329353978391737,4.636992889572866e-05,6.328392919385806e-05
0.0008022130932658911,-0.000215281339478679,0.00019062981300521642
0.0010449870023876429,-0.0004680138372350484,0.00030359841184690595
0.0012339435052126646,-0.0007279554265551269,0.0004033390723634511
0.0014337104512378573,-0.0010256373789161444,0.0005023998091928661
0.0017247862415388227,-0.0013945125974714756,0.0006318042287603021
0.0018997465958818793,-0.0016943858936429024,0.000730961502995342
0.0017736121080815792,-0.0018123607151210308,0.000743027834687382
0.0016413290286436677,-0.0018390418263152242,0.0007260472630150616
0.0016312230145558715,-0.0018475739052519202,0.0007236943929456174
0.0015845175366848707,-0.0018350441241636872,0.0007192690391093493
0.0014104401925578713,-0.0017526771407574415,0.0006788216414861381
0.0010383730987086892,-0.0015652234433218837,0.0005838199285790324
0.0004898937768302858,-0.0012437956174835563,0.0004346653295215219
3.573661524569616e-05,-0.0008869227604009211,0.0002889566239900887
-0.00021856291277799755,-0.0005495089571923018,0.00016682549903634936
-0.00047903164522722363,-0.00017815672617871314,3.283539990661666e-05
-0.0008553961524739861,0.0002553209778852761,-0.00013108371058478951
-0.0013510987628251314,0.0007387583609670401,-0.00032128681777976453
-0.0018400279805064201,0.0011835552286356688,-0.0005012605688534677
-0.002042550127953291,0.0014615333639085293,-0.0006109075038693845
-0.0018740373197942972,0.0015538455918431282,-0.00064068817300722
-0.0016233973437920213,0.001585059566423297,-0.000653801194857806
-0.0014916523359715939,0.001625435776077211,-0.0006786727462895215
-0.0014426984125748277,0.001644642325118184,-0.0006900851149111986
-0.0014291483676061034,0.0015976973809301853,-0.0006662418018095195
-0.0013245539739727974,0.0015109669184312224,-0.0006204762030392885
-0.0010171575704589486,0.0014013894833624363,-0.0005593459936790168
-0.0006673620664514601,0.001269254949875176,-0.0004906437825411558
-0.0003810797643382102,0.0010733999079093337,-0.0004041930369567126
-8.141597209032625e-05,0.0007878330070525408,-0.0002726511156652123
0.0001147953953477554,0.000545506423804909,-0.00015940885350573808
0.0002722158678807318,0.00034567416878417134,-6.996741285547614e-05
0.0004333384276833385,0.0001175719007733278,3.193590237060562e-05
0.00048691307893022895,-9.682420932222158e-05,0.00012263396638445556
0.0006697396747767925,-0.0003445911279413849,0.00023525985307060182
0.001006891718134284,-0.0006160776829347014,0.00035248036147095263
0.0013534290483221412,-0.0009232910815626383,0.000466347235487774
0.0016874942230060697,-0.0012858399422839284,0.0005950655322521925
0.0018596152076497674,-0.0016073713777586818,0.0006976460572332144
0.001788051682524383,-0.001782566076144576,0.0007330322405323386
0.001674771890975535,-0.0018378737149760127,0.0007286121253855526
0.0016596185741946101,-0.001851431094110012,0.0007230918272398412
0.0016268165782094002,-0.0018447103211656213,0.0007162849651649594
0.001479058526456356,-0.0017889683367684484,0.0006896596751175821
0.0011498824460431933,-0.0016345162875950336,0.0006181299686431885
0.0006393900257535279,-0.0013525503454729915,0.0004892553552053869
0.00014897709479555488,-0.0009958751033991575,0.00033678195904940367
-0.00012736266944557428,-0.0006623065564781427,0.00021077778364997357
-0.00035709523945115507,-0.00031646297429688275,8.34161983220838e-05
-0.0007212314521893859,0.00010032951831817627,-7.878510950831696e-05
-0.0012084904592484236,0.0005792800220660865,-0.0002702974306885153
-0.0017614305252209306,0.001066924654878676,-0.00046631466830149293
-0.0020750591065734625,0.0014189740177243948,-0.0005997946136631072
-0.0019319242564961314,0.0015412559732794762,-0.0006352915079332888
-0.0016555229667574167,0.001569822896271944,-0.0006420420249924064
-0.0015170546248555183,0.0016151799354702234,-0.0006663391250185668
-0.0014392646262422204,0.0016564481193199754,-0.0006871817749924958
-0.0013287373585626483,0.0016127928392961621,-0.00066700967727229
-0.0011585844913497567,0.0015193468425422907,-0.0006205179961398244
-0.0010221059201285243,0.001434848876670003,-0.0005760557833127677
-0.000989203224889934,0.0013438629684969783,-0.000538707128725946
-0.0007837860030122101,0.0011755236191675067,-0.00046082271728664637
-0.00034302397398278117,0.0008977809338830411,-0.00032274745171889663
4.175462163402699e-05,0.0006305034039542079,-0.0001920157519634813
0.0002851032477337867,0.000407062703743577,-8.972278010332957e-05
0.0003975764848291874,0.00019142861128784716,3.4698348372330656e-06
0.00043866096530109644,-2.5065881345653906e-05,9.6178671810776e-05
0.0005942301359027624,-0.00026339528267271817,0.00020399256027303636
0.000920063816010952,-0.0005316778551787138,0.00032396975439041853
0.001268338761292398,-0.0008231953252106905,0.00043836361146532
0.0015902657760307193,-0.0011638158466666937,0.0005586860934272408
0.0018000646959990263,-0.0015083558391779661,0.0006718095391988754
0.001792794093489647,-0.0017391201108694077,0.0007343277102336287
0.0016940837958827615,-0.0018303628312423825,0.0007450393750332296
0.0016833022236824036,-0.0018535781418904662,0.0007416956941597164
0.0016775612020865083,-0.001856895862147212,0.0007355523412115872
0.0015455612447112799,-0.00182286836206913,0.0007128538563847542
0.0012565678916871548,-0.0017076816875487566,0.000655326759442687
0.0007756797131150961,-0.0014647591160610318,0.0005459188250824809
0.00026143703144043684,-0.0011070953914895654,0.0003940104797948152
-2.1118881704751402e-05,-0.0007642171694897115,0.0002600931911729276
-0.00021931043011136353,-0.0004435092560015619,0.00014398522034753114
-0.0005565954488702118,-6.169857078930363e-05,-1.2860439255746314e-06
-0.0010023872600868344,0.0004034946032334119,-0.00018461854779161513
-0.0014897941146045923,0.0009058011928573251,-0.00038427766412496567
-0.0018037963891401887,0.0012966098729521036,-0.0005399643559940159
-0.0018901573494076729,0.0014943626010790467,-0.0006168351392261684
-0.0019218726083636284,0.0015727501595392823,-0.0006527708028443158
-0.0018440127605572343,0.0016316387336701155,-0.0006830572965554893
-0.001617721631191671,0.0016621402464807034,-0.0006963657215237617
-0.0013705402379855514,0.0016302078729495406,-0.0006778171518817544
-0.0011484824353829026,0.0015417797258123755,-0.0006323301349766552
-0.0010453839786350727,0.001454780693165958,-0.0005932635976932943
-0.0010214680805802345,0.001368373748846352,-0.0005584543105214834
-0.0008528244798071682,0.0012252506567165256,-0.0004918475169688463
-0.0004517327470239252,0.0009817503159865737,-0.00036887399619445205
-3.863557139993645e-05,0.0007065622485242784,-0.0002313620934728533
0.00023162634170148522,0.00047506106784567237,-0.00012120686733396724
0.0003549612301867455,0.00026534043718129396,-2.9749358873232268e-05
0.0003967768279835582,4.979704681318253e-05,5.959328336757608e-05
0.0005291187553666532,-0.00018728275608737022,0.00016239129763562232
0.0008475756621919572,-0.0004499841306824237,0.0002823156537488103
0.0012075841659680009,-0.0007293666712939739,0.0004004848888143897
0.001504060230217874,-0.0010368551593273878,0.0005148177151568234
0.0017477900255471468,-0.001394657650962472,0.0006386320455931127
0.001795359654352069,-0.001678135828115046,0.0007230911869555712
0.001719923224300146,-0.0018092809477820992,0.0007461871136911213
0.0017294039716944098,-0.0018473082454875112,0.000744266901165247
0.0017448982689529657,-0.0018579154275357723,0.0007400788017548621
0.0016382596222683787,-0.0018394843209534883,0.0007237880490720272
0.001415408100001514,-0.0017551399068906903,0.0006824156153015792
0.001074808882549405,-0.0015717780916020274,0.0005975152016617358
0.0006469725631177425,-0.0012524592457339168,0.00045677286107093096
0.0001744093606248498,-0.0008877022773958743,0.0003002991434186697
-0.00033326767152175307,-0.000539457134436816,0.0001540684315841645
-0.0007439551991410553,-0.00015430149505846202,4.46987269242527e-06
-0.0010178405791521072,0.0002682849299162626,-0.00015277067723218352
-0.0013364943442866206,0.0007427355740219355,-0.00033293766318820417
-0.0016452495474368334,0.0011698229936882854,-0.0004987002466805279
-0.0018504316685721278,0.0014323339564725757,-0.0006035080878064036
-0.001946922391653061,0.0015565002104267478,-0.0006571101839654148
-0.0018811071058735251,0.001623040297999978,-0.0006868512136861682
-0.0016675336519256234,0.0016621750546619296,-0.0007042587385512888
-0.001426249509677291,0.0016479509649798274,-0.0006956418510526419
-0.0012154356809332967,0.0015740585513412952,-0.0006550399702973664
-0.0010931649012491107,0.0014851565938442945,-0.0006076160934753716
-0.0010633141500875354,0.001408326905220747,-0.0005749537376686931
-0.0009379677358083427,0.0012928028590977192,-0.0005276994779706001
-0.000574782898183912,0.0010794962290674448,-0.0004255118255969137
-0.000133177061798051,0.0007945134420879185,-0.00028199129155837
0.00016425685316789895,0.0005436728824861348,-0.00015751908358652145
0.0003062232572119683,0.0003393528750166297,-6.473066605394706e-05
0.00033798208460211754,0.0001331630628556013,2.2899374016560614e-05
0.0004399367608129978,-9.536784637020901e-05,0.00012484237959142774
0.0007677765097469091,-0.00036265974631533027,0.0002530814381316304
0.00114312709774822,-0.0006425873143598437,0.0003762083069887012
0.0014136841055005789,-0.0009175788145512342,0.00047061286750249565
0.001718492596410215,-0.0012942077592015266,0.0005939801339991391
0.001939475303515792,-0.0016432037809863687,0.0007118982030078769
0.0019773857202380896,-0.0018185920780524611,0.0007625511498190463
0.0018406513845548034,-0.0018667180556803942,0.0007540773949585855
0.0015497548738494515,-0.0018453624797984958,0.000715103407856077
0.0013834184501320124,-0.001825937652029097,0.0006939262384548783
0.0013363187899813056,-0.0017711451509967446,0.0006729355081915855
0.0011959209805354476,-0.0016389397205784917,0.0006193564040586352
0.0008572416263632476,-0.0013632791815325618,0.0005013906629756093
0.00034770870115607977,-0.0009987734956666827,0.0003441832377575338
-0.00019428513769526035,-0.0006342882988974452,0.00019101548241451383
-0.0006132030393928289,-0.0002614248660393059,4.5102377043804154e-05
-0.0008913420024327934,0.00014334125444293022,-0.00010257958638248965
-0.0011922739213332534,0.0006011687219142914,-0.0002693199785426259
-0.0015365235740318894,0.0010568584548309445,-0.0004413678834680468
-0.0018201589118689299,0.001387509168125689,-0.0005741313216276467
-0.0019661805126816034,0.0015437280526384711,-0.0006412477232515812
-0.001928609563037753,0.0016051905695348978,-0.0006670839502476156
-0.0017153737135231495,0.0016398349544033408,-0.0006799418479204178
-0.001474740682169795,0.0016532305162400007,-0.0006865757168270648
-0.0012737696524709463,0.0016041467897593975,-0.0006635195459239185
-0.0011325121158733964,0.0015164370415732265,-0.0006178851472213864
-0.0011086702579632401,0.0014353897422552109,-0.0005808458663523197
-0.0010237462120130658,0.001336154993623495,-0.0005370103172026575
-0.0006727305008098483,0.0011474468046799302,-0.0004437156312633306
-0.0002090686757583171,0.0008624884067103267,-0.000299306761007756
0.00011103226279374212,0.0006003848393447697,-0.00017015362391248345
0.0002998904965352267,0.0003886096237692982,-7.991500751813874e-05
0.00042863216367550194,0.00017065677093341947,8.339630767295603e-06
0.0005675720167346299,-5.487796079250984e-05,0.00010882709466386586
0.0007289432105608284,-0.0002996021939907223,0.0002222723123850301
0.0008191364468075335,-0.0005400771042332053,0.00032098902738653123
0.0010321489535272121,-0.0008057301747612655,0.0004175806825514883
0.0014666059287264943,-0.0011584933381527662,0.0005482154083438218
0.0018670791760087013,-0.0015261283842846751,0.0006800538976676762
0.0020361579954624176,-0.0017650534864515066,0.0007550657610408962
0.0019076367607340217,-0.0018453780794516206,0.0007577407523058355
0.001615034183487296,-0.0018378065433353186,0.0007250955095514655
0.0014220882439985871,-0.0018205295782536268,0.0007030375418253243
0.0013811036478728056,-0.0017910514725372195,0.0006893484387546778
0.001286388491280377,-0.001693336758762598,0.0006501571624539793
0.0010007238015532494,-0.0014730276307091117,0.0005522316205315292
0.0005107257165946066,-0.0011338498443365097,0.00039857823867350817
-4.896030804957263e-05,-0.0007658849935978651,0.00024129833036568016
-0.00048642168985679746,-0.00040351151255890727,0.00010532787564443424
-0.0007614751812070608,-1.1157851986354217e-05,-3.151128476019949e-05
-0.0010433174902573228,0.0004341000458225608,-0.00019292514480184764
-0.001417061546817422,0.0009024125174619257,-0.00037365086609497666
-0.0017661938909441233,0.0012964035850018263,-0.0005336549947969615
-0.0019813270773738623,0.0015140461036935449,-0.0006241914234124124
-0.0019782432354986668,0.0015976919094100595,-0.0006554561550728977
-0.0017483473056927323,0.0016340110450983047,-0.0006661374936811626
-0.001501308986917138,0.0016674661310389638,-0.0006787902093492448
-0.0013209361350163817,0.001646772725507617,-0.0006706584244966507
-0.0011304125655442476,0.001552589237689972,-0.0006290670135058463
-0.0009977268055081367,0.0014546216698363423,-0.0005873834597878158
-0.0008585512405261397,0.0013582005631178617,-0.0005459923413582146
-0.0006955814897082746,0.00121342355851084,-0.0004810219397768378
-0.0005509082111530006,0.0009848799090832472,-0.0003767896560020745
-0.00027852648054249585,0.0007211962947621942,-0.00025047885719686747
8.036106009967625e-05,0.00048233289271593094,-0.0001368333032587543
0.0003896219714079052,0.00024249927082564682,-2.7642905479297042e-05
0.000618671765550971,3.4503129882068606e-06,7.919948984635994e-05
0.0007353279506787658,-0.00022596819326281548,0.0001788291265256703
0.0007876033778302372,-0.0004576025530695915,0.00027360516833141446
0.0009592322167009115,-0.0007135503692552447,0.0003739293315447867
0.0013454216532409191,-0.0010408563539385796,0.0005003202240914106
0.0017640821170061827,-0.0014121268177405,0.0006393180810846388
0.002001168904826045,-0.0017083720304071903,0.0007388947415165603
0.0019456016598269343,-0.0018432717770338058,0.0007635732763446867
0.001685279537923634,-0.0018564480124041438,0.0007377312867902219
0.0014760938938707113,-0.0018360124668106437,0.000713798392098397
0.0014369366690516472,-0.0018121071625500917,0.0007067976985126734
0.0013778292341157794,-0.001738108927384019,0.0006788772298023105
0.0011306738015264273,-0.001561138778924942,0.0006002035224810243
0.00067032256629318,-0.0012477929703891277,0.00046114056021906435
7.220386032713577e-05,-0.0008667342481203377,0.00029472564347088337
-0.0004021109198220074,-0.0005109412595629692,0.00014980848936829716
-0.0006541748880408704,-0.00014044671843294054,1.557561699883081e-05
-0.000903621781617403,0.0002864494454115629,-0.00013719876005779952
-0.0012808963656425476,0.0007544265827164054,-0.0003179773048032075
-0.001673091552220285,0.0012161683989688754,-0.0005084145814180374
-0.0018477624980732799,0.0014738758327439427,-0.0006168881081975996
-0.001785799628123641,0.0015499313594773412,-0.0006482165190391243
-0.0017280858010053635,0.0016117681516334414,-0.0006792654166929424
-0.0017806837568059564,0.0016807091888040304,-0.0007157053332775831
-0.0016844398342072964,0.001692832913249731,-0.0007162248366512358
-0.0013488982804119587,0.001596097950823605,-0.0006650930154137313
-0.0010420223698019981,0.0014861304080113769,-0.0006102063343860209
-0.0008305663359351456,0.0013797420542687178,-0.0005587628693319857
-0.0007310269866138697,0.0012636469909921288,-0.0005052200867794454
-0.0006276611820794642,0.001071430742740631,-0.00041857518954202533
-0.0003695971972774714,0.0008109399350360036,-0.00029376792372204363
5.897419669054216e-06,0.0005569776985794306,-0.00016855467401910573
0.00033632677514106035,0.0003261544625274837,-5.9694684750866145e-05
0.0005693122511729598,9.79412070591934e-05,4.1552895709173754e-05
0.00069194205570966,-0.00013314149691723287,0.00013944573584012687
0.0007370464154519141,-0.0003643080126494169,0.0002356302720727399
0.0008814905886538327,-0.0006180519703775644,0.00033760062069632113
0.0012365772854536772,-0.0009214808815158904,0.00045556167606264353
0.0016743934247642756,-0.0012936374405398965,0.00059795897686854
0.0019667265005409718,-0.0016348303761333227,0.0007224898436106741
0.0019868891686201096,-0.0018223159713670611,0.0007714838138781488
0.0017322995699942112,-0.001848860876634717,0.0007453253492712975
0.001490528229624033,-0.0018327798461541533,0.0007125080446712673
0.0014694706769660115,-0.0018310964806005359,0.0007078024209477007
0.0014596916735172272,-0.0017903392435982823,0.0006961662438698113
0.0012717500794678926,-0.001665472867898643,0.0006442124722525477
0.0008783641969785094,-0.001388317672535777,0.0005211256793700159
0.00036705302773043513,-0.0010080811334773898,0.00035542514524422586
-4.0449038351653144e-05,-0.0006674663163721561,0.00021748316066805273
-0.0004654374497476965,-0.000291024538455531,6.829987250966951e-05
-0.001013625762425363,0.00015045453619677573,-0.00011220036685699597
-0.0014692704426124692,0.0006315769860520959,-0.0002983656886499375
-0.0017144230660051107,0.0010838083690032363,-0.0004631433985196054
-0.0017937213415279984,0.0013848720118403435,-0.0005702803609892726
-0.0017442340031266212,0.0015157123561948538,-0.000617906276602298
-0.0017261935863643885,0.0015823630383238196,-0.0006513104308396578
-0.0017895071068778634,0.0016547871055081487,-0.0006927613285370171
-0.0017247076611965895,0.0016820923192426562,-0.0007079732022248209
-0.0014357073232531548,0.0016220106044784188,-0.0006741217221133411
-0.001113198813982308,0.0015181780327111483,-0.0006194448797032237
-0.0008907031151466072,0.0014180539874359965,-0.0005733896396122873
-0.0007813303964212537,0.0013116281479597092,-0.0005290520493872464
-0.0007096077897585928,0.0011542380088940263,-0.0004563198599498719
-0.0004904854577034712,0.0009095065179280937,-0.0003310494648758322
-0.00010004537034546956,0.0006392918294295669,-0.00018937794084195048
0.00026573557988740504,0.0003988012613262981,-7.529822323704138e-05
0.000504649302456528,0.00017273088451474905,2.199936170654837e-05
0.0006413705996237695,-5.53693353140261e-05,0.00012253700697328895
0.0006702758255414665,-0.0002803692186716944,0.00022132243611849844
0.0007829859387129545,-0.0005310552078299224,0.0003241399535909295
0.0011328905820846558,-0.0008163664606399834,0.0004312677192501724
0.0015865002060309052,-0.001169644994661212,0.0005603922181762755
0.0019320236751809716,-0.0015390771441161633,0.0006911656237207353
0.0020640769507735968,-0.0017945381114259362,0.00076425721636042
0.001954460982233286,-0.0018663640366867185,0.0007599449600093067
0.0017828517593443394,-0.0018572192639112473,0.0007339544827118516
0.0015890495851635933,-0.0018467489862814546,0.0007158895605243742
0.0012794530484825373,-0.0017903476255014539,0.0006779301911592484
0.0010332897072657943,-0.001679084962233901,0.0006256527849473059
0.0008402655366808176,-0.0014587517362087965,0.0005373747553676367
0.0005276215961202979,-0.001126704621128738,0.0004028773109894246
0.00015510187949985266,-0.0007807668880559504,0.00026246823836117983
-0.0003044198383577168,-0.0004168378945905715,0.00011396277113817632
-0.0008535584202036262,7.96212498244131e-06,-5.570759458350949e-05
-0.0013138017384335399,0.00047387415543198586,-0.00023179083655122668
-0.0015976298600435257,0.0009380117990076542,-0.00040216802153736353
-0.00173957587685436,0.001298529445193708,-0.0005357145564630628
-0.0017553664511069655,0.001490017049945891,-0.0006079897866584361
-0.0017471564933657646,0.0015722928801551461,-0.0006461796001531184
-0.0018011085921898484,0.0016392077086493373,-0.0006871814839541912
-0.0017717063892632723,0.0016834114212542772,-0.000714350666385144
-0.0015154241118580103,0.0016452411655336618,-0.0006900483276695013
-0.00117884308565408,0.0015413822839036584,-0.0006298384978435934
-0.0009462462621740997,0.001437866478227079,-0.0005772729055024683
-0.0008267171215265989,0.0013430757680907845,-0.0005366509431041777
-0.0007859694305807352,0.0012163225328549743,-0.0004831890109926462
-0.0006055468693375587,0.0009917975403368473,-0.00037491213879548013
-0.00017972437490243465,0.0007031112327240407,-0.00022356517729349434
0.00022326303587760776,0.0004632020427379757,-0.00010267346806358546
0.0004667620814871043,0.00025060679763555527,-1.1696979527187068e-05
0.0006479774019680917,1.0898563232331071e-05,9.089085506275296e-05
0.0007843728526495397,-0.0002308594703208655,0.00019815893028862774
0.0009598747710697353,-0.0004846221418119967,0.0003056208079215139
0.001128351199440658,-0.0007439765613526106,0.00039519305573776364
0.0012523422483354807,-0.0010433285497128963,0.0004838949826080352
0.0015440965071320534,-0.001413055113516748,0.0006171928253024817
0.001879202201962471,-0.0017073608469218016,0.0007305887993425131
0.0019953420851379633,-0.0018453344237059355,0.0007672617794014513
0.0019063027575612068,-0.001874987967312336,0.0007517748745158315
0.0016687401803210378,-0.0018586618825793266,0.0007228751783259213
0.0013540041400119662,-0.0018049494829028845,0.0006904629990458488
0.0011160100111737847,-0.0017077402444556355,0.0006506521604023874
0.0009520909516140819,-0.0015306206187233329,0.0005807250854559243
0.0006733957561664283,-0.001232899958267808,0.0004562519025057554
0.00028466180083341897,-0.0008827341953292489,0.0003106231743004173
-0.00017309479881078005,-0.0005242056213319302,0.00016542068624403328
-0.0007073736051097512,-0.000123772828374058,3.1207721349346684e-06
-0.0011892342008650303,0.0003258309152442962,-0.0001742437161738053
-0.001495808595791459,0.0007889018161222339,-0.0003464483597781509
-0.0016884232172742486,0.0012027658522129059,-0.0005010757595300674
-0.0017673831898719072,0.001452449127100408,-0.0006010279757902026
-0.0017553834477439523,0.0015470273792743683,-0.0006434760289266706
-0.0018081956077367067,0.0016125582624226809,-0.0006762127159163356
-0.0018219631165266037,0.001678914064541459,-0.0007090041763149202
-0.0015813090139999986,0.0016718965489417315,-0.0007008508546277881
-0.0012227079132571816,0.0015754904597997665,-0.0006481586606241763
-0.0009793001227080822,0.0014674837002530694,-0.0005930975894443691
-0.000819273351226002,0.0013706372119486332,-0.0005473573110066354
-0.0006890598451718688,0.001254797214642167,-0.0005001922254450619
-0.0004571726603899151,0.0010470564011484385,-0.0004066289111506194
-0.00019158315262757242,0.0007703718729317188,-0.00027228164253756404
-9.105050412472337e-05,0.0005527146277017891,-0.0001694326347205788
8.725719817448407e-05,0.00034498533932492137,-7.449927943525836e-05
0.0004284529422875494,9.756554936757311e-05,4.175267167738639e-05
0.000739366514608264,-0.0001608194870641455,0.00016032571147661656
0.0009703774121589959,-0.0004209881299175322,0.00027246709214523435
0.0010871820850297809,-0.0006680535152554512,0.0003618707414716482
0.001173051306977868,-0.0009374850196763873,0.0004460706259123981
0.0014300133334472775,-0.0012807471211999655,0.0005670560640282929
0.0018000423442572355,-0.0016177757643163204,0.0006954302662052214
0.001998170046135783,-0.001816196832805872,0.0007625056896358728
0.0019534521270543337,-0.0018732957541942596,0.0007652672939002514
0.0017306434456259012,-0.001861152471974492,0.0007404481875710189
0.0014200046425685287,-0.0018256305484101176,0.0007096190820448101
0.0011666486971080303,-0.0017553846118971705,0.0006725380662828684
0.001024741563014686,-0.0016158096259459853,0.0006172292050905526
0.0008038108353503048,-0.0013522438239306211,0.000512712518684566
0.0004179819952696562,-0.0009976678993552923,0.00036380020901560783
-3.404410381335765e-05,-0.0006424044840969145,0.0002134164678864181
-0.0005754910525865853,-0.0002597437414806336,5.676273212884553e-05
-0.0010809212690219283,0.00017868771101348102,-0.00011469437595224008
-0.0013777600834146142,0.0006340270047076046,-0.00028365725302137434
-0.0016048718243837357,0.0010874054860323668,-0.0004541717062238604
-0.0017607248155400157,0.0014038184890523553,-0.0005767957190982997
-0.0017409687861800194,0.00152995262760669,-0.0006230900180526078
-0.001677504274994135,0.0015816113445907831,-0.0006449448992498219
-0.001616196590475738,0.001639754744246602,-0.0006723353289999068
-0.0015672919107601047,0.0016767226625233889,-0.0006932804826647043
-0.0015374767826870084,0.0016343907918781042,-0.0006828511250205338
-0.0013546724803745747,0.001542136538773775,-0.0006375344819389284
-0.001028139959089458,0.0014298897003754973,-0.0005766072426922619
-0.0007396501605398953,0.0013058176264166832,-0.0005144845345057547
-0.0004797512956429273,0.0011190080549567938,-0.00042892576311714947
-0.00027280079666525126,0.0008727938984520733,-0.0003154562145937234
-0.00015922542661428452,0.000643847743049264,-0.00021010015916544944
1.6609546946710907e-05,0.0004306405025999993,-0.00011197196727152914
0.0003443052410148084,0.00019063225772697479,5.941909080320329e-07
0.000669859757181257,-6.454713002312928e-05,0.00011856290802825242
0.0009070347878150642,-0.0003205151006113738,0.0002319673221791163
0.0010359291918575764,-0.0005704644718207419,0.00033066689502447844
0.001111976453103125,-0.0008307680836878717,0.0004181239928584546
0.0013274999801069498,-0.0011580124264582992,0.0005300656193867326
0.0017244841437786818,-0.0015231688739731908,0.0006686177221126854
0.002009232295677066,-0.0017777425236999989,0.0007625934667885303
0.002006527269259095,-0.0018665243405848742,0.0007770534721203148
0.0018034178065136075,-0.0018666014075279236,0.0007502502994611859
0.0014773663133382797,-0.0018349061720073223,0.0007149669108912349
0.0012112298281863332,-0.0017812050646170974,0.000681130972225219
0.0011208511423319578,-0.0016844752244651318,0.0006417352706193924
0.0009675074834376574,-0.0014763919170945883,0.0005555965472012758
0.0005925509030930698,-0.0011383631499484181,0.0004117966745980084
0.0001546825806144625,-0.0007744703907519579,0.0002640862949192524
-0.0002707811654545367,-0.0004148938460275531,0.0001255128881894052
-0.0006917680148035288,-1.8554129610492964e-06,-3.353876309120096e-05
-0.0011691836407408118,0.0004703990707639605,-0.00022077564790379256
-0.001724615111015737,0.0009677431080490351,-0.00042606639908626676
-0.00201168074272573,0.001351225539110601,-0.0005761382053606212
-0.0018913444364443421,0.0015142286429181695,-0.0006260931841097772
-0.0016838019946590066,0.001568055828101933,-0.0006431504734791815
-0.0015582581982016563,0.0016131168231368065,-0.0006715852068737149
-0.0015609902329742908,0.0016640993999317288,-0.0007038289331831038
-0.0015701884403824806,0.0016574483597651124,-0.0006994775612838566
-0.001413334277458489,0.0015817541861906648,-0.0006522925687022507
-0.0010944330133497715,0.0014695936115458608,-0.0005913763307034969
-0.0007922842050902545,0.001344179967418313,-0.000532632926478982
-0.0005495023797266185,0.0011824296088889241,-0.00045584794133901596
-0.0003489111550152302,0.000956784700974822,-0.00034521432826295495
-0.00021492877567652613,0.0007160489330999553,-0.00023001580848358572
-4.9918970034923404e-05,0.0004945960827171803,-0.00012972611875738949
0.00025660241954028606,0.0002626027853693813,-2.3403550585499033e-05
0.0005965875461697578,6.871224286442157e-06,9.713327017379925e-05
0.0008334554731845856,-0.00024058287090156227,0.00021230196580290794
0.0009788036113604903,-0.0004879946354776621,0.0003160790365654975
0.0010263994336128235,-0.000729404971934855,0.0004009839612990618
0.0011901571415364742,-0.0010253289947286248,0.0004991280729882419
0.0016316050896421075,-0.001412987126968801,0.0006409185007214546
0.002016334794461727,-0.0017383210361003876,0.0007544856052845716
0.002068448346108198,-0.001875109737738967,0.000781001930590719
0.0019127757987007499,-0.0018894011154770851,0.0007588125299662352
0.0016999365761876106,-0.001869929488748312,0.0007314298418350518
0.001519155572168529,-0.0018372000195086002,0.0007048090337775648
0.0012677644845098257,-0.0017437072237953544,0.0006541901384480298
0.0008411672315560281,-0.001538910437375307,0.0005565967294387519
0.00040966455708257854,-0.0012098272563889623,0.00041527708526700735
0.00013040725025348365,-0.0008686005021445453,0.0002840969536919147
-0.00013319718709681183,-0.0005395789630711079,0.00016066803073044866
-0.0004929935676045716,-0.0001547868741909042,1.1750467820093036e-05
-0.0009954898850992322,0.00030057536787353456,-0.00016872627020347863
-0.001577355433255434,0.0008055453654378653,-0.000370260386262089
-0.001940813148394227,0.0012328628217801452,-0.000534816412255168
-0.0019219048554077744,0.0014658293221145868,-0.000612171774264425
-0.0017319039907306433,0.0015464441385120153,-0.0006311280303634703
-0.0015927717322483659,0.0015944363549351692,-0.0006526180659420788
-0.0015807674499228597,0.001652332372032106,-0.0006902485620230436
